Timestamp,ECG Value
17596,1623
17597,1628
17598,1630
17599,1633
17600,1639
17601,1641
17602,1647
17603,1648
17604,1648
17605,1649
17606,1649
17607,1648
17608,1655
17609,1655
17610,1657
17611,1661
17612,1664
17613,1661
17614,1658
17615,1658
17616,1662
17617,1666
17618,1662
17619,1658
17620,1662
17621,1657
17622,1660
17623,1654
17624,1650
17625,1651
17626,1648
17627,1648
17628,1648
17629,1648
17630,1648
17631,1647
17632,1646
17633,1648
17634,1658
17635,1659
17636,1670
17637,1678
17638,1680
17639,1689
17640,1694
17641,1707
17642,1716
17643,1712
17644,1716
17645,1715
17646,1714
17647,1714
17648,1713
17649,1714
17650,1712
17651,1712
17652,1712
17653,1712
17654,1712
17655,1716
17656,1719
17657,1723
17658,1730
17659,1727
17660,1732
17661,1733
17662,1735
17663,1732
17664,1728
17665,1721
17666,1717
17667,1718
17668,1712
17669,1698
17670,1686
17671,1675
17672,1667
17673,1651
17674,1646
17675,1632
17676,1618
17677,1612
17678,1599
17679,1584
17680,1573
17681,1563
17682,1535
17683,1534
17684,1523
17685,1520
17686,1517
17687,1509
17688,1507
17689,1514
17690,1505
17691,1505
17692,1498
17693,1503
17694,1493
17695,1497
17696,1489
17697,1494
17698,1493
17699,1493
17700,1491
17701,1488
17702,1487
17703,1487
17704,1485
17705,1487
17706,1479
17707,1488
17708,1482
17709,1477
17710,1477
17711,1474
17712,1473
17713,1470
17714,1463
17715,1461
17716,1463
17717,1459
17718,1465
17719,1462
17720,1465
17721,1462
17722,1470
17723,1460
17724,1465
17725,1463
17726,1466
17727,1467
17728,1461
17729,1465
17730,1467
17731,1468
17732,1467
17733,1469
17734,1470
17735,1471
17736,1471
17737,1477
17738,1477
17739,1482
17740,1482
17741,1483
17742,1488
17743,1488
17744,1488
17745,1491
17746,1499
17747,1509
17748,1521
17749,1535
17750,1557
17751,1572
17752,1594
17753,1613
17754,1629
17755,1651
17756,1654
17757,1665
17758,1675
17759,1680
17760,1683
17761,1685
17762,1689
17763,1699
17764,1712
17765,1722
17766,1746
17767,1777
17768,1810
17769,1850
17770,1893
17771,1947
17772,2001
17773,2066
17774,2129
17775,2191
17776,2245
17777,2299
17778,2346
17779,2385
17780,2403
17781,2401
17782,2374
17783,2326
17784,2277
17785,2210
17786,2149
17787,2093
17788,2032
17789,1984
17790,1946
17791,1911
17792,1879
17793,1863
17794,1845
17795,1840
17796,1840
17797,1842
17798,1843
17799,1851
17800,1853
17801,1844
17802,1839
17803,1826
17804,1815
17815,1679
17816,1670
17817,1659
17818,1654
17819,1648
17820,1638
17821,1631
17822,1616
17823,1613
17824,1595
17825,1585
17826,1570
17827,1557
17828,1535
17829,1523
17830,1509
17831,1492
17832,1486
17833,1473
17834,1459
17835,1456
17836,1453
17837,1447
17838,1440
17839,1440
17840,1442
17841,1442
17842,1441
17843,1441
17844,1443
17845,1439
17846,1442
17847,1447
17848,1447
17849,1445
17850,1442
17851,1446
17852,1440
17853,1439
17854,1438
17855,1438
17856,1437
17857,1436
17858,1439
17859,1434
17860,1439
17861,1439
17862,1437
17863,1439
17864,1440
17865,1446
17866,1445
17867,1448
17868,1452
17869,1455
17870,1452
17871,1456
17872,1456
17873,1454
17874,1454
17875,1453
17876,1450
17877,1454
17878,1456
17879,1453
17880,1456
17881,1456
17882,1457
17883,1462
17884,1472
17885,1472
17886,1483
17887,1482
17888,1488
17889,1488
17890,1491
17891,1489
17892,1492
17893,1494
17894,1493
17895,1493
17896,1496
17897,1497
17898,1493
17899,1495
17900,1499
17901,1501
17902,1502
17903,1503
17904,1507
17905,1510
17906,1514
17907,1519
17908,1517
17909,1521
17910,1526
17911,1527
17912,1531
17913,1530
17914,1531
17915,1535
17916,1535
17917,1535
17918,1534
17919,1535
17920,1535
17921,1535
17922,1552
17923,1552
17924,1554
17925,1557
17926,1554
17927,1558
17928,1562
17929,1562
17930,1563
17931,1570
17932,1573
17933,1584
17934,1584
17935,1585
17936,1586
17937,1587
17938,1597
17939,1599
17940,1603
17941,1602
17942,1605
17943,1613
17944,1611
17945,1615
17946,1613
17947,1616
17948,1616
17949,1617
17950,1616
17951,1610
17952,1619
17953,1616
17954,1619
17955,1621
17956,1622
17957,1629
17958,1623
17959,1632
17960,1633
17961,1642
17962,1637
17963,1645
17964,1648
17965,1652
17966,1655
17967,1659
17968,1660
17969,1664
17970,1666
17971,1671
17972,1677
17973,1679
17974,1680
17975,1682
17976,1681
17977,1683
17978,1684
17979,1687
17980,1695
17981,1697
17982,1699
17983,1705
17984,1707
17985,1707
17986,1712
17987,1712
17988,1717
17989,1717
17990,1723
17991,1728
17992,1729
17993,1733
17994,1735
17995,1745
17996,1749
17997,1754
17998,1760
17999,1763
18000,1767
18001,1774
18002,1779
18003,1790
18004,1792
18005,1807
18006,1806
18007,1810
18008,1814
18009,1825
18010,1829
18011,1834
18012,1839
18013,1842
18014,1849
18015,1850
18016,1859
18017,1862
18018,1869
18019,1878
18020,1879
18021,1886
18022,1904
18023,1914
18024,1917
18025,1931
18026,1930
18027,1936
18028,1936
18029,1939
18030,1948
18031,1953
18032,1953
18033,1967
18034,1961
18035,1968
18036,1968
18037,1968
18038,1974
18039,1978
18040,1979
18041,1987
18042,1986
18043,1994
18044,1997
18045,2000
18046,1999
18047,2000
18048,2006
18049,2000
18050,2003
18051,2003
18052,2003
18053,2006
18054,1999
18065,1983
18066,1974
18067,1969
18068,1968
18069,1967
18070,1957
18071,1947
18072,1941
18073,1927
18074,1920
18075,1911
18076,1897
18077,1884
18078,1872
18079,1861
18080,1847
18081,1841
18082,1840
18083,1824
18084,1818
18085,1811
18086,1802
18087,1796
18088,1790
18089,1782
18090,1772
18091,1763
18092,1749
18093,1737
18094,1725
18095,1712
18096,1712
18097,1692
18098,1681
18099,1670
18100,1657
18101,1651
18102,1644
18103,1629
18104,1620
18105,1618
18106,1616
18107,1610
18108,1609
18109,1602
18110,1601
18111,1595
18112,1584
18113,1584
18114,1574
18115,1573
18116,1564
18117,1559
18118,1535
18119,1535
18120,1535
18121,1532
18122,1533
18123,1527
18124,1530
18125,1525
18126,1523
18127,1529
18128,1527
18129,1522
18130,1521
18131,1520
18132,1509
18133,1510
18134,1504
18135,1498
18136,1499
18137,1494
18138,1492
18139,1490
18140,1490
18141,1494
18142,1490
18143,1488
18144,1503
18145,1499
18146,1501
18147,1503
18148,1510
18149,1509
18150,1499
18151,1504
18152,1501
18153,1502
18154,1506
18155,1506
18156,1506
18157,1509
18158,1506
18159,1505
18160,1507
18161,1507
18162,1507
18163,1509
18164,1506
18165,1504
18166,1507
18167,1502
18168,1513
18169,1515
18170,1510
18171,1519
18172,1518
18173,1517
18174,1514
18175,1518
18176,1513
18177,1520
18178,1521
18179,1520
18180,1520
18181,1520
18182,1530
18183,1525
18184,1530
18185,1525
18186,1529
18187,1535
18188,1535
18189,1535
18190,1535
18191,1535
18192,1535
18193,1535
18194,1535
18195,1535
18196,1535
18197,1535
18198,1535
18199,1535
18200,1535
18201,1535
18202,1557
18203,1554
18204,1565
18205,1565
18206,1568
18207,1571
18208,1578
18209,1572
18210,1583
18211,1582
18212,1566
18213,1577
18214,1577
18215,1570
18216,1583
18217,1584
18218,1583
18219,1584
18220,1584
18221,1584
18222,1588
18223,1591
18224,1589
18225,1597
18226,1599
18227,1599
18228,1600
18229,1600
18230,1605
18231,1602
18232,1598
18233,1596
18234,1599
18235,1600
18236,1600
18237,1598
18238,1600
18239,1600
18240,1597
18241,1600
18242,1598
18243,1600
18244,1603
18245,1610
18246,1615
18247,1618
18248,1621
18249,1623
18250,1621
18251,1627
18252,1625
18253,1627
18254,1630
18255,1630
18256,1630
18257,1626
18258,1626
18259,1623
18260,1619
18261,1616
18262,1618
18263,1616
18264,1621
18265,1625
18266,1628
18267,1632
18268,1633
18269,1633
18270,1638
18271,1636
18272,1640
18273,1638
18274,1633
18275,1633
18276,1626
18277,1627
18278,1616
18279,1616
18280,1607
18281,1603
18282,1599
18283,1598
18284,1595
18285,1598
18286,1600
18287,1597
18288,1589
18289,1587
18290,1598
18291,1598
18292,1597
18293,1598
18294,1602
18295,1600
18296,1601
18297,1605
18298,1603
18299,1602
18300,1601
18301,1603
18302,1599
18303,1591
18304,1599
18315,1601
18316,1606
18317,1605
18318,1605
18319,1605
18320,1606
18321,1607
18322,1607
18323,1607
18324,1604
18325,1600
18326,1600
18327,1593
18328,1597
18329,1589
18330,1586
18331,1584
18332,1586
18333,1584
18334,1584
18335,1584
18336,1587
18337,1586
18338,1589
18339,1590
18340,1591
18341,1595
18342,1597
18343,1600
18344,1606
18345,1610
18346,1611
18347,1614
18348,1618
18349,1619
18350,1623
18351,1631
18352,1633
18353,1632
18354,1639
18355,1649
18356,1648
18357,1650
18358,1648
18359,1643
18360,1647
18361,1647
18362,1643
18363,1637
18364,1648
18365,1643
18366,1648
18367,1648
18368,1647
18369,1648
18370,1648
18371,1646
18372,1648
18373,1647
18374,1647
18375,1647
18376,1646
18377,1648
18378,1650
18379,1648
18380,1649
18381,1655
18382,1669
18383,1671
18384,1676
18385,1680
18386,1683
18387,1686
18388,1685
18389,1689
18390,1681
18391,1679
18392,1678
18393,1674
18394,1677
18395,1667
18396,1665
18397,1664
18398,1669
18399,1666
18400,1675
18401,1670
18402,1677
18403,1677
18404,1681
18405,1683
18406,1685
18407,1687
18408,1685
18409,1685
18410,1686
18411,1693
18412,1692
18413,1688
18414,1691
18415,1698
18416,1703
18417,1697
18418,1699
18419,1698
18420,1697
18421,1692
18422,1694
18423,1691
18424,1683
18425,1683
18426,1682
18427,1680
18428,1679
18429,1677
18430,1680
18431,1680
18432,1682
18433,1681
18434,1690
18435,1695
18436,1699
18437,1703
18438,1709
18439,1714
18440,1714
18441,1717
18442,1717
18443,1718
18444,1722
18445,1719
18446,1715
18447,1721
18448,1715
18449,1715
18450,1712
18451,1715
18452,1717
18453,1715
18454,1715
18455,1712
18456,1721
18457,1716
18458,1715
18459,1717
18460,1717
18461,1719
18462,1710
18463,1718
18464,1721
18465,1718
18466,1722
18467,1717
18468,1719
18469,1723
18470,1722
18471,1725
18472,1725
18473,1733
18474,1739
18475,1735
18476,1735
18477,1738
18478,1737
18479,1741
18480,1743
18481,1742
18482,1744
18483,1743
18484,1743
18485,1745
18486,1750
18487,1746
18488,1750
18489,1746
18490,1747
18491,1750
18492,1754
18493,1750
18494,1744
18495,1745
18496,1744
18497,1747
18498,1741
18499,1740
18500,1739
18501,1738
18502,1745
18503,1744
18504,1747
18505,1753
18506,1751
18507,1762
18508,1766
18509,1763
18510,1770
18511,1775
18512,1776
18513,1779
18514,1780
18515,1777
18516,1778
18517,1776
18518,1775
18519,1773
18520,1775
18521,1773
18522,1776
18523,1776
18524,1779
18525,1785
18526,1789
18527,1793
18528,1798
18529,1808
18530,1808
18531,1813
18532,1827
18533,1833
18534,1839
18535,1843
18536,1853
18537,1856
18538,1856
18539,1858
18540,1863
18541,1859
18542,1853
18543,1853
18544,1844
18545,1838
18546,1836
18547,1834
18548,1829
18549,1834
18550,1834
18551,1840
18552,1855
18553,1857
18554,1867
18565,1937
18566,1935
18567,1931
18568,1931
18569,1929
18570,1936
18571,1929
18572,1933
18573,1936
18574,1937
18575,1943
18576,1947
18577,1949
18578,1955
18579,1959
18580,1957
18581,1968
18582,1959
18583,1957
18584,1954
18585,1953
18586,1949
18587,1941
18588,1934
18589,1925
18590,1920
18591,1907
18592,1898
18593,1892
18594,1881
18595,1872
18596,1866
18597,1856
18598,1843
18599,1831
18600,1821
18601,1810
18602,1798
18603,1794
18604,1787
18605,1776
18606,1773
18607,1769
18608,1763
18609,1763
18610,1759
18611,1755
18612,1761
18613,1765
18614,1761
18615,1764
18616,1767
18617,1773
18618,1772
18619,1776
18620,1770
18621,1767
18622,1762
18623,1759
18624,1757
18625,1755
18626,1754
18627,1747
18628,1746
18629,1749
18630,1755
18631,1749
18632,1757
18633,1760
18634,1763
18635,1760
18636,1762
18637,1763
18638,1770
18639,1761
18640,1765
18641,1762
18642,1759
18643,1762
18644,1755
18645,1758
18646,1759
18647,1755
18648,1758
18649,1759
18650,1758
18651,1753
18652,1754
18653,1749
18654,1746
18655,1750
18656,1751
18657,1755
18658,1759
18659,1762
18660,1765
18661,1763
18662,1767
18663,1773
18664,1775
18665,1776
18666,1776
18667,1780
18668,1789
18669,1798
18670,1808
18671,1821
18672,1840
18673,1853
18674,1872
18675,1889
18676,1904
18677,1917
18678,1927
18679,1938
18680,1941
18681,1954
18682,1961
18683,1968
18684,1973
18685,1995
18686,2016
18687,2041
18688,2080
18689,2122
18690,2171
18691,2233
18692,2298
18693,2370
18694,2442
18695,2511
18696,2581
18697,2642
18698,2706
18699,2763
18700,2795
18701,2801
18702,2787
18703,2752
18704,2681
18705,2608
18706,2526
18707,2461
18708,2391
18709,2342
18710,2288
18711,2256
18712,2219
18713,2192
18714,2178
18715,2162
18716,2160
18717,2160
18718,2161
18719,2167
18720,2176
18721,2191
18722,2192
18723,2197
18724,2197
18725,2198
18726,2189
18727,2181
18728,2160
18729,2141
18730,2118
18731,2098
18732,2071
18733,2044
18734,2025
18735,2000
18736,1985
18737,1971
18738,1960
18739,1948
18740,1930
18741,1921
18742,1909
18743,1904
18744,1900
18745,1891
18746,1884
18747,1874
18748,1863
18749,1860
18750,1843
18751,1835
18752,1823
18753,1810
18754,1803
18755,1787
18756,1781
18757,1764
18758,1761
18759,1750
18760,1745
18761,1743
18762,1742
18763,1739
18764,1739
18765,1740
18766,1742
18767,1739
18768,1743
18769,1742
18770,1741
18771,1742
18772,1739
18773,1738
18774,1744
18775,1744
18776,1735
18777,1743
18778,1743
18779,1743
18780,1744
18781,1742
18782,1737
18783,1744
18784,1741
18785,1738
18786,1735
18787,1735
18788,1735
18789,1741
18790,1734
18791,1734
18792,1741
18793,1744
18794,1744
18795,1745
18796,1750
18797,1755
18798,1750
18799,1755
18800,1755
18801,1755
18802,1755
18803,1757
18804,1753
18815,1777
18816,1779
18817,1779
18818,1787
18819,1790
18820,1790
18821,1793
18822,1793
18823,1797
18824,1801
18825,1803
18826,1808
18827,1808
18828,1807
18829,1811
18830,1818
18831,1813
18832,1813
18833,1815
18834,1819
18835,1822
18836,1834
18837,1833
18838,1838
18839,1837
18840,1840
18841,1840
18842,1839
18843,1839
18844,1839
18845,1840
18846,1841
18847,1840
18848,1845
18849,1841
18850,1840
18851,1843
18852,1844
18853,1851
18854,1850
18855,1855
18856,1851
18857,1856
18858,1857
18859,1856
18860,1859
18861,1861
18862,1870
18863,1872
18864,1866
18865,1872
18866,1872
18867,1872
18868,1872
18869,1878
18870,1882
18871,1879
18872,1890
18873,1894
18874,1893
18875,1891
18876,1899
18877,1899
18878,1901
18879,1904
18880,1909
18881,1913
18882,1918
18883,1925
18884,1927
18885,1929
18886,1933
18887,1934
18888,1937
18889,1940
18890,1940
18891,1946
18892,1941
18893,1945
18894,1949
18895,1946
18896,1954
18897,1961
18898,1964
18899,1967
18900,1968
18901,1974
18902,1977
18903,1982
18904,1990
18905,1999
18906,2000
18907,2009
18908,2019
18909,2019
18910,2022
18911,2036
18912,2039
18913,2056
18914,2064
18915,2066
18916,2067
18917,2075
18918,2075
18919,2082
18920,2081
18921,2086
18922,2089
18923,2096
18924,2103
18925,2117
18926,2113
18927,2127
18928,2128
18929,2141
18930,2149
18931,2160
18932,2161
18933,2176
18934,2181
18935,2189
18936,2193
18937,2197
18938,2199
18939,2205
18940,2210
18941,2213
18942,2220
18943,2221
18944,2224
18945,2228
18946,2236
18947,2241
18948,2249
18949,2253
18950,2257
18951,2261
18952,2270
18953,2275
18954,2278
18955,2284
18956,2290
18957,2294
18958,2301
18959,2307
18960,2304
18961,2307
18962,2307
18963,2316
18964,2317
18965,2319
18966,2319
18967,2318
18968,2319
18969,2321
18970,2320
18971,2320
18972,2323
18973,2324
18974,2324
18975,2323
18976,2325
18977,2323
18978,2324
18979,2322
18980,2323
18981,2318
18982,2320
18983,2310
18984,2309
18985,2305
18986,2295
18987,2287
18988,2285
18989,2281
18990,2271
18991,2259
18992,2259
18993,2253
18994,2247
18995,2237
18996,2227
18997,2220
18998,2215
18999,2206
19000,2193
19001,2187
19002,2177
19003,2164
19004,2160
19005,2144
19006,2131
19007,2128
19008,2117
19009,2109
19010,2097
19011,2092
19012,2083
19013,2073
19014,2066
19015,2059
19016,2047
19017,2043
19018,2027
19019,2018
19020,2005
19021,2001
19022,1997
19023,1984
19024,1981
19025,1970
19026,1968
19027,1959
19028,1955
19029,1942
19030,1940
19031,1934
19032,1936
19033,1927
19034,1926
19035,1928
19036,1926
19037,1926
19038,1925
19039,1922
19040,1920
19041,1923
19042,1930
19043,1924
19044,1929
19045,1921
19046,1923
19047,1918
19048,1917
19049,1918
19050,1909
19051,1907
19052,1904
19053,1904
19054,1905
19055,1905
19066,1919
19067,1922
19068,1925
19069,1930
19070,1926
19071,1931
19072,1932
19073,1927
19074,1923
19075,1922
19076,1923
19077,1921
19078,1923
19079,1922
19080,1923
19081,1930
19082,1932
19083,1938
19084,1937
19085,1946
19086,1949
19087,1953
19088,1957
19089,1965
19090,1967
19091,1967
19092,1971
19093,1972
19094,1978
19095,1979
19096,1987
19097,1984
19098,1982
19099,1988
19100,1984
19101,1989
19102,1985
19103,1994
19104,1985
19105,1992
19106,2000
19107,1995
19108,1989
19109,2002
19110,2002
19111,2006
19112,2015
19113,2011
19114,2016
19115,2020
19116,2015
19117,2021
19118,2023
19119,2020
19120,2026
19121,2031
19122,2032
19123,2033
19124,2034
19125,2035
19126,2037
19127,2035
19128,2042
19129,2037
19130,2043
19131,2047
19132,2055
19133,2060
19134,2064
19135,2064
19136,2063
19137,2061
19138,2066
19139,2069
19140,2070
19141,2073
19142,2067
19143,2070
19144,2069
19145,2067
19146,2069
19147,2070
19148,2076
19149,2079
19150,2081
19151,2082
19152,2086
19153,2083
19154,2090
19155,2090
19156,2093
19157,2095
19158,2095
19159,2100
19160,2099
19161,2102
19162,2107
19163,2107
19164,2106
19165,2103
19166,2101
19167,2100
19168,2101
19169,2102
19170,2100
19171,2098
19172,2103
19173,2101
19174,2107
19175,2109
19176,2108
19177,2107
19178,2109
19179,2105
19180,2111
19181,2112
19182,2113
19183,2110
19184,2114
19185,2113
19186,2113
19187,2114
19188,2128
19189,2122
19190,2126
19191,2123
19192,2119
19193,2126
19194,2124
19195,2122
19196,2122
19197,2119
19198,2127
19199,2126
19200,2128
19201,2124
19202,2129
19203,2127
19204,2134
19205,2137
19206,2134
19207,2143
19208,2143
19209,2144
19210,2139
19211,2143
19212,2138
19213,2140
19214,2141
19215,2135
19216,2128
19217,2128
19218,2130
19219,2128
19220,2130
19221,2129
19222,2129
19223,2130
19224,2133
19225,2138
19226,2134
19227,2138
19228,2139
19229,2142
19230,2137
19231,2141
19232,2142
19233,2140
19234,2141
19235,2137
19236,2139
19237,2145
19238,2139
19239,2138
19240,2137
19241,2135
19242,2140
19243,2138
19244,2138
19245,2134
19246,2138
19247,2138
19248,2138
19249,2130
19250,2137
19251,2139
19252,2133
19253,2138
19254,2135
19255,2139
19256,2141
19257,2135
19258,2142
19259,2139
19260,2137
19261,2142
19262,2141
19263,2144
19264,2145
19265,2144
19266,2146
19267,2145
19268,2141
19269,2144
19270,2149
19271,2147
19272,2147
19273,2150
19274,2150
19275,2150
19276,2151
19277,2154
19278,2152
19279,2151
19280,2153
19281,2151
19282,2153
19283,2157
19284,2159
19285,2159
19286,2157
19287,2160
19288,2157
19289,2160
19290,2158
19291,2158
19292,2158
19293,2157
19294,2160
19295,2160
19296,2160
19297,2157
19298,2156
19299,2157
19300,2157
19301,2157
19302,2153
19303,2159
19304,2153
19305,2154
19316,2171
19317,2173
19318,2171
19319,2176
19320,2174
19321,2178
19322,2176
19323,2180
19324,2181
19325,2178
19326,2181
19327,2183
19328,2181
19329,2179
19330,2180
19331,2179
19332,2179
19333,2183
19334,2183
19335,2189
19336,2192
19337,2189
19338,2192
19339,2192
19340,2196
19341,2198
19342,2202
19343,2205
19344,2207
19345,2212
19346,2214
19347,2226
19348,2227
19349,2230
19350,2242
19351,2246
19352,2249
19353,2256
19354,2260
19355,2271
19356,2275
19357,2272
19358,2282
19359,2280
19360,2286
19361,2288
19362,2290
19363,2288
19364,2288
19365,2289
19366,2291
19367,2292
19368,2288
19369,2290
19370,2289
19371,2290
19372,2291
19373,2293
19374,2291
19375,2290
19376,2303
19377,2310
19378,2320
19379,2325
19380,2334
19381,2342
19382,2347
19383,2357
19384,2362
19385,2370
19386,2370
19387,2372
19388,2375
19389,2371
19390,2374
19391,2366
19392,2366
19393,2367
19394,2366
19395,2363
19396,2363
19397,2358
19398,2357
19399,2366
19400,2355
19401,2365
19402,2363
19403,2369
19404,2366
19405,2364
19406,2364
19407,2358
19408,2363
19409,2352
19410,2349
19411,2347
19412,2339
19413,2335
19414,2330
19415,2320
19416,2320
19417,2310
19418,2303
19419,2294
19420,2287
19421,2277
19422,2256
19423,2250
19424,2239
19425,2224
19426,2217
19427,2205
19428,2194
19429,2190
19430,2183
19431,2179
19432,2169
19433,2167
19434,2172
19435,2167
19436,2166
19437,2163
19438,2170
19439,2166
19440,2167
19441,2169
19442,2161
19443,2164
19444,2166
19445,2165
19446,2160
19447,2164
19448,2163
19449,2160
19450,2159
19451,2159
19452,2161
19453,2160
19454,2160
19455,2158
19456,2154
19457,2146
19458,2151
19459,2145
19460,2147
19461,2145
19462,2147
19463,2144
19464,2146
19465,2147
19466,2151
19467,2143
19468,2144
19469,2147
19470,2146
19471,2145
19472,2142
19473,2142
19474,2143
19475,2145
19476,2143
19477,2143
19478,2141
19479,2146
19480,2147
19481,2149
19482,2147
19483,2149
19484,2151
19485,2154
19486,2155
19487,2155
19488,2151
19489,2160
19490,2160
19491,2163
19492,2170
19493,2177
19494,2192
19495,2206
19496,2220
19497,2242
19498,2256
19499,2279
19500,2306
19501,2319
19502,2335
19503,2347
19504,2351
19505,2365
19506,2365
19507,2370
19508,2381
19509,2385
19510,2400
19511,2422
19512,2446
19513,2474
19514,2512
19515,2550
19516,2608
19517,2662
19518,2731
19519,2799
19520,2864
19521,2934
19522,2999
19523,3063
19524,3134
19525,3193
19526,3220
19527,3227
19528,3200
19529,3152
19530,3088
19531,3013
19532,2935
19533,2863
19534,2797
19535,2735
19536,2681
19537,2643
19538,2608
19539,2559
19540,2551
19541,2533
19542,2525
19543,2516
19544,2512
19545,2514
19546,2514
19547,2514
19548,2512
19549,2506
19550,2497
19551,2482
19552,2471
19553,2455
19554,2442
19555,2418
19566,2282
19567,2272
19568,2262
19569,2259
19570,2245
19571,2234
19572,2225
19573,2223
19574,2210
19575,2201
19576,2187
19577,2177
19578,2170
19579,2160
19580,2153
19581,2145
19582,2133
19583,2129
19584,2127
19585,2125
19586,2114
19587,2114
19588,2109
19589,2112
19590,2099
19591,2103
19592,2100
19593,2096
19594,2096
19595,2098
19596,2095
19597,2096
19598,2094
19599,2093
19600,2097
19601,2096
19602,2096
19603,2096
19604,2096
19605,2096
19606,2096
19607,2097
19608,2096
19609,2096
19610,2096
19611,2101
19612,2100
19613,2100
19614,2097
19615,2103
19616,2100
19617,2103
19618,2110
19619,2106
19620,2111
19621,2112
19622,2112
19623,2113
19624,2109
19625,2112
19626,2111
19627,2114
19628,2108
19629,2109
19630,2109
19631,2112
19632,2109
19633,2111
19634,2110
19635,2099
19636,2104
19637,2098
19638,2099
19639,2099
19640,2100
19641,2098
19642,2105
19643,2102
19644,2103
19645,2112
19646,2109
19647,2109
19648,2112
19649,2114
19650,2118
19651,2122
19652,2128
19653,2130
19654,2131
19655,2134
19656,2127
19657,2123
19658,2125
19659,2137
19660,2135
19661,2134
19662,2128
19663,2141
19664,2140
19665,2135
19666,2138
19667,2137
19668,2145
19669,2139
19670,2138
19671,2143
19672,2138
19673,2142
19674,2143
19675,2142
19676,2146
19677,2147
19678,2149
19679,2154
19680,2159
19681,2157
19682,2158
19683,2159
19684,2162
19685,2162
19686,2163
19687,2165
19688,2163
19689,2174
19690,2183
19691,2176
19692,2176
19693,2176
19694,2171
19695,2179
19696,2177
19697,2176
19698,2174
19699,2170
19700,2178
19701,2174
19702,2172
19703,2175
19704,2179
19705,2174
19706,2182
19707,2190
19708,2191
19709,2191
19710,2192
19711,2193
19712,2195
19713,2197
19714,2195
19715,2194
19716,2198
19717,2195
19718,2204
19719,2193
19720,2199
19721,2198
19722,2197
19723,2195
19724,2205
19725,2205
19726,2197
19727,2217
19728,2215
19729,2215
19730,2217
19731,2222
19732,2227
19733,2233
19734,2231
19735,2230
19736,2238
19737,2238
19738,2241
19739,2244
19740,2247
19741,2251
19742,2251
19743,2257
19744,2259
19745,2265
19746,2269
19747,2271
19748,2271
19749,2274
19750,2281
19751,2282
19752,2290
19753,2295
19754,2301
19755,2301
19756,2305
19757,2311
19758,2318
19759,2314
19760,2323
19761,2323
19762,2329
19763,2333
19764,2334
19765,2341
19766,2341
19767,2353
19768,2355
19769,2359
19770,2369
19771,2375
19772,2378
19773,2384
19774,2389
19775,2395
19776,2398
19777,2395
19778,2395
19779,2403
19780,2401
19781,2407
19782,2402
19783,2399
19784,2410
19785,2411
19786,2410
19787,2411
19788,2416
19789,2413
19790,2413
19791,2410
19792,2405
19793,2409
19794,2412
19795,2407
19796,2407
19797,2404
19798,2399
19799,2402
19800,2399
19801,2397
19802,2389
19803,2391
19804,2384
19805,2385
19816,2305
19817,2288
19818,2285
19819,2272
19820,2257
19821,2255
19822,2240
19823,2231
19824,2224
19825,2205
19826,2197
19827,2183
19828,2175
19829,2160
19830,2156
19831,2141
19832,2133
19833,2128
19834,2117
19835,2109
19836,2096
19837,2092
19838,2085
19839,2067
19840,2057
19841,2045
19842,2032
19843,2015
19844,2007
19845,2000
19846,1989
19847,1979
19848,1968
19849,1968
19850,1954
19851,1951
19852,1945
19853,1942
19854,1938
19855,1934
19856,1924
19857,1917
19858,1911
19859,1914
19860,1907
19861,1904
19862,1901
19863,1899
19864,1891
19865,1891
19866,1885
19867,1883
19868,1879
19869,1879
19870,1876
19871,1873
19872,1870
19873,1863
19874,1863
19875,1858
19876,1857
19877,1855
19878,1857
19879,1856
19880,1855
19881,1853
19882,1851
19883,1849
19884,1847
19885,1850
19886,1842
19887,1848
19888,1843
19889,1846
19890,1847
19891,1840
19892,1839
19893,1840
19894,1840
19895,1841
19896,1842
19897,1840
19898,1840
19899,1840
19900,1840
19901,1840
19902,1840
19903,1844
19904,1840
19905,1841
19906,1843
19907,1843
19908,1840
19909,1840
19910,1842
19911,1841
19912,1840
19913,1843
19914,1855
19915,1856
19916,1857
19917,1861
19918,1863
19919,1863
19920,1865
19921,1867
19922,1871
19923,1872
19924,1871
19925,1869
19926,1870
19927,1869
19928,1869
19929,1869
19930,1861
19931,1871
19932,1866
19933,1866
19934,1865
19935,1857
19936,1866
19937,1858
19938,1865
19939,1865
19940,1861
19941,1865
19942,1868
19943,1871
19944,1871
19945,1871
19946,1877
19947,1875
19948,1878
19949,1885
19950,1886
19951,1888
19952,1882
19953,1888
19954,1886
19955,1889
19956,1894
19957,1892
19958,1897
19959,1898
19960,1898
19961,1898
19962,1901
19963,1902
19964,1902
19965,1899
19966,1903
19967,1902
19968,1899
19969,1904
19970,1899
19971,1904
19972,1901
19973,1898
19974,1894
19975,1895
19976,1896
19977,1898
19978,1901
19979,1902
19980,1903
19981,1898
19982,1898
19983,1901
19984,1897
19985,1900
19986,1902
19987,1903
19988,1904
19989,1901
19990,1904
19991,1904
19992,1909
19993,1909
19994,1911
19995,1907
19996,1909
19997,1904
19998,1904
19999,1904
20000,1904
20001,1900
20002,1904
20003,1899
20004,1902
20005,1904
20006,1902
20007,1895
20008,1893
20009,1891
20010,1887
20011,1889
20012,1888
20013,1888
20014,1891
20015,1895
20016,1893
20017,1895
20018,1901
20019,1894
20020,1893
20021,1890
20022,1890
20023,1888
20024,1891
20025,1887
20026,1887
20027,1883
20028,1886
20029,1885
20030,1885
20031,1879
20032,1879
20033,1873
20034,1875
20035,1875
20036,1872
20037,1872
20038,1873
20039,1874
20040,1873
20041,1872
20042,1876
20043,1872
20044,1877
20045,1875
20046,1874
20047,1877
20048,1878
20049,1886
20050,1889
20051,1889
20052,1883
20053,1889
20054,1887
20055,1886
20066,1889
20067,1891
20068,1897
20069,1894
20070,1898
20071,1893
20072,1894
20073,1889
20074,1891
20075,1891
20076,1887
20077,1894
20078,1885
20079,1891
20080,1893
20081,1895
20082,1893
20083,1899
20084,1899
20085,1899
20086,1898
20087,1898
20088,1901
20089,1901
20090,1899
20091,1903
20092,1902
20093,1905
20094,1903
20095,1905
20096,1904
20097,1904
20098,1905
20099,1905
20100,1913
20101,1914
20102,1911
20103,1908
20104,1909
20105,1906
20106,1904
20107,1905
20108,1904
20109,1902
20110,1898
20111,1899
20112,1901
20113,1902
20114,1900
20115,1899
20116,1904
20117,1903
20118,1904
20119,1905
20120,1905
20121,1904
20122,1906
20123,1909
20124,1906
20125,1905
20126,1908
20127,1907
20128,1907
20129,1904
20130,1905
20131,1904
20132,1905
20133,1911
20134,1911
20135,1911
20136,1908
20137,1908
20138,1908
20139,1905
20140,1903
20141,1904
20142,1904
20143,1903
20144,1902
20145,1902
20146,1897
20147,1901
20148,1904
20149,1898
20150,1898
20151,1901
20152,1897
20153,1899
20154,1898
20155,1898
20156,1904
20157,1902
20158,1904
20159,1904
20160,1906
20161,1904
20162,1907
20163,1908
20164,1909
20165,1906
20166,1904
20167,1904
20168,1899
20169,1894
20170,1898
20171,1894
20172,1894
20173,1895
20174,1892
20175,1893
20176,1899
20177,1898
20178,1901
20179,1901
20180,1901
20181,1904
20182,1904
20183,1904
20184,1905
20185,1904
20186,1906
20187,1907
20188,1904
20189,1903
20190,1904
20191,1904
20192,1904
20193,1906
20194,1906
20195,1903
20196,1906
20197,1907
20198,1909
20199,1910
20200,1922
20201,1927
20202,1933
20203,1936
20204,1942
20205,1954
20206,1954
20207,1966
20208,1966
20209,1973
20210,1975
20211,1974
20212,1980
20213,1979
20214,1987
20215,1987
20216,1990
20217,1991
20218,1991
20219,1994
20220,1993
20221,1997
20222,1995
20223,1989
20224,1997
20225,1997
20226,1990
20227,1993
20228,1989
20229,1997
20230,1997
20231,2007
20232,2014
20233,2017
20234,2030
20235,2037
20236,2047
20237,2060
20238,2064
20239,2069
20240,2090
20241,2067
20242,2073
20243,2071
20244,2064
20245,2065
20246,2064
20247,2064
20248,2062
20249,2069
20250,2064
20251,2065
20252,2061
20253,2065
20254,2069
20255,2067
20256,2075
20257,2072
20258,2071
20259,2068
20260,2067
20261,2064
20262,2061
20263,2055
20264,2055
20265,2043
20266,2033
20267,2032
20268,2025
20269,2017
20270,2003
20271,1999
20272,1986
20273,1974
20274,1968
20275,1957
20276,1938
20277,1925
20278,1910
20279,1903
20280,1893
20281,1883
20282,1872
20283,1866
20284,1869
20285,1865
20286,1861
20287,1863
20288,1858
20289,1855
20290,1855
20291,1851
20292,1855
20293,1851
20294,1859
20295,1856
20296,1851
20297,1854
20298,1854
20299,1855
20300,1856
20301,1851
20302,1854
20303,1856
20304,1852
20305,1851
20316,1851
20317,1851
20318,1846
20319,1853
20320,1852
20321,1851
20322,1849
20323,1847
20324,1847
20325,1847
20326,1841
20327,1841
20328,1841
20329,1842
20330,1840
20331,1840
20332,1838
20333,1835
20334,1840
20335,1839
20336,1841
20337,1841
20338,1843
20339,1845
20340,1846
20341,1850
20342,1851
20343,1857
20344,1867
20345,1872
20346,1882
20347,1895
20348,1906
20349,1930
20350,1953
20351,1972
20352,1995
20353,2023
20354,2039
20355,2064
20356,2071
20357,2085
20358,2094
20359,2101
20360,2112
20361,2126
20362,2131
20363,2159
20364,2179
20365,2215
20366,2244
20367,2277
20368,2322
20369,2374
20370,2426
20371,2495
20372,2559
20373,2640
20374,2710
20375,2774
20376,2846
20377,2903
20378,2954
20379,2990
20380,2992
20381,2974
20382,2931
20383,2875
20384,2815
20385,2757
20386,2689
20387,2630
20388,2559
20389,2523
20390,2480
20391,2444
20392,2406
20393,2382
20394,2363
20395,2340
20396,2323
20397,2305
20398,2286
20399,2263
20400,2243
20401,2212
20402,2192
20403,2171
20404,2158
20405,2138
20406,2125
20407,2111
20408,2097
20409,2087
20410,2082
20411,2078
20412,2075
20413,2065
20414,2064
20415,2062
20416,2060
20417,2055
20418,2043
20419,2035
20420,2032
20421,2026
20422,2009
20423,2001
20424,1994
20425,1974
20426,1963
20427,1951
20428,1936
20429,1933
20430,1920
20431,1913
20432,1914
20433,1909
20434,1911
20435,1914
20436,1920
20437,1927
20438,1937
20439,1940
20440,1952
20441,1959
20442,1968
20443,1978
20444,1985
20445,1994
20446,2000
20447,1999
20448,2002
20449,2011
20450,2018
20451,2026
20452,2029
20453,2031
20454,2033
20455,2035
20456,2044
20457,2054
20458,2061
20459,2065
20460,2065
20461,2075
20462,2077
20463,2080
20464,2077
20465,2095
20466,2097
20467,2098
20468,2106
20469,2112
20470,2117
20471,2122
20472,2127
20473,2130
20474,2137
20475,2131
20476,2145
20477,2149
20478,2157
20479,2157
20480,2158
20481,2165
20482,2163
20483,2165
20484,2171
20485,2167
20486,2173
20487,2178
20488,2178
20489,2181
20490,2189
20491,2189
20492,2190
20493,2191
20494,2197
20495,2199
20496,2206
20497,2205
20498,2209
20499,2212
20500,2214
20501,2223
20502,2224
20503,2229
20504,2227
20505,2237
20506,2237
20507,2236
20508,2240
20509,2244
20510,2247
20511,2248
20512,2249
20513,2254
20514,2253
20515,2250
20516,2251
20517,2253
20518,2250
20519,2250
20520,2254
20521,2250
20522,2256
20523,2253
20524,2256
20525,2256
20526,2259
20527,2261
20528,2267
20529,2273
20530,2273
20531,2275
20532,2286
20533,2285
20534,2286
20535,2289
20536,2287
20537,2288
20538,2291
20539,2290
20540,2294
20541,2292
20542,2297
20543,2298
20544,2295
20545,2299
20546,2304
20547,2307
20548,2304
20549,2313
20550,2313
20551,2309
20552,2318
20553,2318
20554,2317
20555,2319
20566,2352
20567,2352
20568,2356
20569,2358
20570,2362
20571,2363
20572,2367
20573,2369
20574,2373
20575,2367
20576,2373
20577,2375
20578,2377
20579,2374
20580,2379
20581,2379
20582,2384
20583,2382
20584,2383
20585,2385
20586,2385
20587,2388
20588,2391
20589,2388
20590,2398
20591,2401
20592,2403
20593,2404
20594,2409
20595,2412
20596,2416
20597,2417
20598,2427
20599,2430
20600,2433
20601,2443
20602,2447
20603,2451
20604,2460
20605,2465
20606,2469
20607,2475
20608,2474
20609,2480
20610,2482
20611,2489
20612,2493
20613,2497
20614,2502
20615,2511
20616,2512
20617,2512
20618,2518
20619,2519
20620,2525
20621,2531
20622,2537
20623,2538
20624,2543
20625,2547
20626,2557
20627,2559
20628,2559
20629,2559
20630,2582
20631,2585
20632,2587
20633,2589
20634,2593
20635,2593
20636,2603
20637,2594
20638,2598
20639,2595
20640,2597
20641,2595
20642,2597
20643,2598
20644,2601
20645,2598
20646,2598
20647,2600
20648,2597
20649,2594
20650,2594
20651,2593
20652,2594
20653,2595
20654,2590
20655,2583
20656,2559
20657,2580
20658,2559
20659,2559
20660,2555
20661,2544
20662,2543
20663,2537
20664,2527
20665,2522
20666,2512
20667,2508
20668,2497
20669,2483
20670,2471
20671,2463
20672,2452
20673,2439
20674,2430
20675,2421
20676,2406
20677,2395
20678,2381
20679,2370
20680,2366
20681,2349
20682,2338
20683,2324
20684,2311
20685,2298
20686,2291
20687,2281
20688,2269
20689,2256
20690,2243
20691,2239
20692,2229
20693,2221
20694,2206
20695,2195
20696,2192
20697,2174
20698,2167
20699,2159
20700,2146
20701,2142
20702,2128
20703,2123
20704,2117
20705,2109
20706,2105
20707,2096
20708,2089
20709,2091
20710,2083
20711,2077
20712,2068
20713,2066
20714,2063
20715,2058
20716,2055
20717,2047
20718,2039
20719,2040
20720,2035
20721,2031
20722,2028
20723,2019
20724,2019
20725,2014
20726,2009
20727,2007
20728,2009
20729,2011
20730,2006
20731,2002
20732,2001
20733,2000
20734,2000
20735,1999
20736,1996
20737,1995
20738,1986
20739,1995
20740,1994
20741,1989
20742,1993
20743,1989
20744,1995
20745,1991
20746,1990
20747,1990
20748,1991
20749,1997
20750,1986
20751,1984
20752,1982
20753,1984
20754,1985
20755,1978
20756,1974
20757,1978
20758,1982
20759,1983
20760,1979
20761,1979
20762,1981
20763,1983
20764,1981
20765,1983
20766,1983
20767,1982
20768,1982
20769,1984
20770,1981
20771,1984
20772,1995
20773,1989
20774,1994
20775,1989
20776,1994
20777,1989
20778,1990
20779,1994
20780,1988
20781,1989
20782,1991
20783,1990
20784,2000
20785,1999
20786,1998
20787,1997
20788,1997
20789,1988
20790,1990
20791,1987
20792,1991
20793,1991
20794,1989
20795,1989
20796,1991
20797,1986
20798,1989
20799,1986
20800,1986
20801,1984
20802,1991
20803,1985
20804,1989
20805,1989
20816,1999
20817,2004
20818,2007
20819,2002
20820,2002
20821,2002
20822,2001
20823,2004
20824,1997
20825,2000
20826,2000
20827,2000
20828,1999
20829,1999
20830,1999
20831,1999
20832,1996
20833,1999
20834,1993
20835,1995
20836,1999
20837,1993
20838,1994
20839,1991
20840,1989
20841,1994
20842,1989
20843,1990
20844,1979
20845,1987
20846,1984
20847,1987
20848,1984
20849,1985
20850,1984
20851,1985
20852,1984
20853,1980
20854,1984
20855,1974
20856,1977
20857,1979
20858,1974
20859,1975
20860,1967
20861,1969
20862,1969
20863,1968
20864,1968
20865,1968
20866,1968
20867,1963
20868,1971
20869,1964
20870,1959
20871,1968
20872,1968
20873,1968
20874,1969
20875,1969
20876,1968
20877,1969
20878,1968
20879,1972
20880,1979
20881,1975
20882,1969
20883,1977
20884,1978
20885,1980
20886,1979
20887,1975
20888,1974
20889,1980
20890,1977
20891,1979
20892,1974
20893,1978
20894,1975
20895,1983
20896,1966
20897,1974
20898,1974
20899,1973
20900,1971
20901,1972
20902,1971
20903,1973
20904,1968
20905,1967
20906,1971
20907,1973
20908,1975
20909,1969
20910,1966
20911,1969
20912,1969
20913,1967
20914,1965
20915,1969
20916,1973
20917,1969
20918,1968
20919,1968
20920,1971
20921,1968
20922,1965
20923,1967
20924,1965
20925,1963
20926,1963
20927,1952
20928,1958
20929,1952
20930,1953
20931,1953
20932,1947
20933,1947
20934,1943
20935,1947
20936,1947
20937,1952
20938,1953
20939,1950
20940,1954
20941,1958
20942,1957
20943,1959
20944,1961
20945,1962
20946,1957
20947,1953
20948,1949
20949,1952
20950,1950
20951,1948
20952,1949
20953,1946
20954,1947
20955,1950
20956,1949
20957,1952
20958,1950
20959,1947
20960,1947
20961,1947
20962,1946
20963,1947
20964,1943
20965,1949
20966,1949
20967,1951
20968,1949
20969,1945
20970,1950
20971,1953
20972,1955
20973,1954
20974,1953
20975,1953
20976,1952
20977,1951
20978,1950
20979,1947
20980,1949
20981,1949
20982,1945
20983,1945
20984,1947
20985,1943
20986,1943
20987,1946
20988,1939
20989,1937
20990,1937
20991,1938
20992,1943
20993,1942
20994,1942
20995,1938
20996,1940
20997,1943
20998,1936
20999,1940
21000,1941
21001,1938
21002,1943
21003,1953
21004,1938
21005,1941
21006,1943
21007,1946
21008,1946
21009,1946
21010,1947
21011,1952
21012,1955
21013,1955
21014,1952
21015,1958
21016,1957
21017,1961
21018,1957
21019,1959
21020,1959
21021,1955
21022,1958
21023,1962
21024,1967
21025,1973
21026,1985
21027,1995
21028,2003
21029,2006
21030,2019
21031,2028
21032,2035
21033,2046
21034,2063
21035,2069
21036,2075
21037,2084
21038,2091
21039,2096
21040,2102
21041,2106
21042,2114
21043,2122
21044,2127
21045,2128
21046,2133
21047,2139
21048,2138
21049,2147
21050,2149
21051,2158
21052,2160
21053,2161
21054,2161
21055,2161
21066,2195
21067,2199
21068,2197
21069,2202
21070,2207
21071,2206
21072,2208
21073,2209
21074,2209
21075,2210
21076,2207
21077,2208
21078,2219
21079,2211
21080,2220
21081,2220
21082,2218
21083,2216
21084,2224
21085,2218
21086,2215
21087,2217
21088,2221
21089,2213
21090,2211
21091,2209
21092,2213
21093,2209
21094,2208
21095,2210
21096,2210
21097,2209
21098,2215
21099,2215
21100,2218
21101,2223
21102,2223
21103,2221
21104,2219
21105,2218
21106,2218
21107,2222
21108,2219
21109,2218
21110,2217
21111,2214
21112,2212
21113,2214
21114,2213
21115,2211
21116,2213
21117,2214
21118,2211
21119,2207
21120,2210
21121,2211
21122,2211
21123,2207
21124,2210
21125,2211
21126,2206
21127,2213
21128,2213
21129,2215
21130,2215
21131,2213
21132,2214
21133,2218
21134,2213
21135,2213
21136,2210
21137,2214
21138,2215
21139,2210
21140,2211
21141,2213
21142,2208
21143,2217
21144,2215
21145,2214
21146,2219
21147,2219
21148,2224
21149,2225
21150,2226
21151,2233
21152,2238
21153,2245
21154,2255
21155,2260
21156,2270
21157,2273
21158,2280
21159,2285
21160,2290
21161,2297
21162,2303
21163,2309
21164,2310
21165,2306
21166,2314
21167,2315
21168,2317
21169,2320
21170,2325
21171,2320
21172,2326
21173,2332
21174,2337
21175,2342
21176,2350
21177,2357
21178,2362
21179,2371
21180,2382
21181,2390
21182,2398
21183,2407
21184,2419
21185,2435
21186,2439
21187,2447
21188,2451
21189,2454
21190,2454
21191,2453
21192,2449
21193,2451
21194,2448
21195,2450
21196,2453
21197,2450
21198,2450
21199,2449
21200,2448
21201,2450
21202,2458
21203,2455
21204,2466
21205,2464
21206,2465
21207,2462
21208,2459
21209,2458
21210,2457
21211,2453
21212,2447
21213,2439
21214,2434
21215,2423
21216,2415
21217,2402
21218,2396
21219,2384
21220,2373
21221,2366
21222,2352
21223,2346
21224,2327
21225,2320
21226,2305
21227,2295
21228,2283
21229,2270
21230,2258
21231,2255
21232,2250
21233,2239
21234,2235
21235,2235
21236,2225
21237,2225
21238,2224
21239,2225
21240,2219
21241,2213
21242,2218
21243,2221
21244,2213
21245,2213
21246,2211
21247,2208
21248,2202
21249,2206
21250,2207
21251,2203
21252,2204
21253,2202
21254,2202
21255,2195
21256,2195
21257,2195
21258,2194
21259,2196
21260,2197
21261,2193
21262,2198
21263,2194
21264,2193
21265,2192
21266,2188
21267,2186
21268,2182
21269,2179
21270,2178
21271,2174
21272,2169
21273,2171
21274,2173
21275,2167
21276,2170
21277,2170
21278,2169
21279,2168
21280,2171
21281,2170
21282,2166
21283,2166
21284,2160
21285,2165
21286,2160
21287,2162
21288,2160
21289,2159
21290,2160
21291,2161
21292,2160
21293,2169
21294,2174
21295,2176
21296,2194
21297,2209
21298,2220
21299,2245
21300,2263
21301,2288
21302,2301
21303,2315
21304,2327
21305,2336
21316,2481
21317,2525
21318,2587
21319,2653
21320,2721
21321,2801
21322,2882
21323,2965
21324,3049
21325,3131
21326,3207
21327,3267
21328,3319
21329,3330
21330,3319
21331,3287
21332,3236
21333,3181
21334,3117
21335,3054
21336,3004
21337,2956
21338,2913
21339,2869
21340,2833
21341,2812
21342,2787
21343,2768
21344,2760
21345,2751
21346,2747
21347,2736
21348,2719
21349,2706
21350,2683
21351,2667
21352,2647
21353,2634
21354,2623
21355,2609
21356,2598
21357,2586
21358,2559
21359,2559
21360,2559
21361,2559
21362,2548
21363,2544
21364,2544
21365,2539
21366,2532
21367,2530
21368,2522
21369,2513
21370,2503
21371,2489
21372,2470
21373,2457
21374,2446
21375,2434
21376,2416
21377,2403
21378,2387
21379,2383
21380,2369
21381,2367
21382,2358
21383,2352
21384,2349
21385,2349
21386,2337
21387,2337
21388,2331
21389,2329
21390,2331
21391,2345
21392,2331
21393,2332
21394,2320
21395,2333
21396,2331
21397,2333
21398,2325
21399,2332
21400,2334
21401,2332
21402,2333
21403,2335
21404,2335
21405,2329
21406,2333
21407,2334
21408,2332
21409,2334
21410,2336
21411,2337
21412,2336
21413,2343
21414,2339
21415,2339
21416,2335
21417,2340
21418,2339
21419,2349
21420,2349
21421,2345
21422,2345
21423,2346
21424,2349
21425,2348
21426,2349
21427,2345
21428,2350
21429,2343
21430,2342
21431,2342
21432,2339
21433,2341
21434,2337
21435,2337
21436,2338
21437,2339
21438,2340
21439,2331
21440,2338
21441,2337
21442,2331
21443,2333
21444,2331
21445,2336
21446,2334
21447,2331
21448,2335
21449,2337
21450,2333
21451,2330
21452,2335
21453,2334
21454,2339
21455,2342
21456,2330
21457,2330
21458,2339
21459,2327
21460,2329
21461,2329
21462,2331
21463,2331
21464,2325
21465,2326
21466,2330
21467,2330
21468,2331
21469,2336
21470,2331
21471,2333
21472,2334
21473,2339
21474,2335
21475,2340
21476,2338
21477,2338
21478,2333
21479,2336
21480,2333
21481,2335
21482,2327
21483,2333
21484,2327
21485,2327
21486,2327
21487,2327
21488,2327
21489,2336
21490,2330
21491,2333
21492,2333
21493,2334
21494,2323
21495,2332
21496,2325
21497,2329
21498,2326
21499,2327
21500,2329
21501,2323
21502,2327
21503,2333
21504,2337
21505,2337
21506,2334
21507,2338
21508,2335
21509,2334
21510,2334
21511,2332
21512,2327
21513,2333
21514,2334
21515,2330
21516,2323
21517,2331
21518,2335
21519,2339
21520,2337
21521,2338
21522,2337
21523,2342
21524,2345
21525,2346
21526,2348
21527,2351
21528,2350
21529,2350
21530,2352
21531,2352
21532,2352
21533,2353
21534,2354
21535,2357
21536,2355
21537,2355
21538,2352
21539,2359
21540,2362
21541,2363
21542,2367
21543,2368
21544,2373
21545,2371
21546,2371
21547,2379
21548,2383
21549,2385
21550,2385
21551,2393
21552,2393
21553,2397
21554,2396
21555,2401
21566,2437
21567,2438
21568,2446
21569,2447
21570,2445
21571,2447
21572,2448
21573,2448
21574,2451
21575,2450
21576,2458
21577,2460
21578,2463
21579,2466
21580,2467
21581,2475
21582,2478
21583,2480
21584,2481
21585,2485
21586,2486
21587,2494
21588,2494
21589,2495
21590,2497
21591,2499
21592,2507
21593,2505
21594,2511
21595,2514
21596,2524
21597,2525
21598,2537
21599,2544
21600,2549
21601,2553
21602,2559
21603,2559
21604,2559
21605,2589
21606,2592
21607,2595
21608,2600
21609,2603
21610,2608
21611,2606
21612,2605
21613,2601
21614,2602
21615,2597
21616,2596
21617,2590
21618,2587
21619,2559
21620,2559
21621,2559
21622,2556
21623,2545
21624,2539
21625,2529
21626,2521
21627,2513
21628,2506
21629,2492
21630,2489
21631,2480
21632,2469
21633,2465
21634,2454
21635,2448
21636,2437
21637,2431
21638,2422
21639,2427
21640,2407
21641,2395
21642,2386
21643,2384
21644,2378
21645,2372
21646,2358
21647,2353
21648,2346
21649,2337
21650,2329
21651,2326
21652,2320
21653,2322
21654,2305
21655,2289
21656,2288
21657,2279
21658,2275
21659,2266
21660,2261
21661,2256
21662,2251
21663,2247
21664,2239
21665,2235
21666,2229
21667,2224
21668,2219
21669,2214
21670,2207
21671,2203
21672,2191
21673,2188
21674,2181
21675,2176
21676,2171
21677,2163
21678,2161
21679,2160
21680,2159
21681,2155
21682,2152
21683,2154
21684,2153
21685,2147
21686,2150
21687,2149
21688,2145
21689,2147
21690,2144
21691,2147
21692,2144
21693,2145
21694,2146
21695,2148
21696,2147
21697,2153
21698,2151
21699,2155
21700,2150
21701,2151
21702,2151
21703,2159
21704,2150
21705,2147
21706,2153
21707,2146
21708,2147
21709,2139
21710,2142
21711,2143
21712,2134
21713,2137
21714,2139
21715,2133
21716,2132
21717,2127
21718,2128
21719,2128
21720,2130
21721,2134
21722,2135
21723,2134
21724,2133
21725,2131
21726,2135
21727,2130
21728,2133
21729,2133
21730,2130
21731,2134
21732,2132
21733,2128
21734,2128
21735,2128
21736,2128
21737,2126
21738,2126
21739,2127
21740,2128
21741,2130
21742,2131
21743,2128
21744,2128
21745,2128
21746,2129
21747,2127
21748,2127
21749,2121
21750,2118
21751,2119
21752,2126
21753,2117
21754,2116
21755,2119
21756,2121
21757,2119
21758,2119
21759,2118
21760,2115
21761,2113
21762,2112
21763,2113
21764,2108
21765,2103
21766,2107
21767,2100
21768,2102
21769,2099
21770,2096
21771,2093
21772,2092
21773,2089
21774,2090
21775,2091
21776,2091
21777,2081
21778,2080
21779,2077
21780,2078
21781,2071
21782,2074
21783,2073
21784,2069
21785,2067
21786,2067
21787,2066
21788,2064
21789,2064
21790,2064
21791,2064
21792,2061
21793,2059
21794,2059
21795,2047
21796,2046
21797,2039
21798,2036
21799,2029
21800,2029
21801,2019
21802,2017
21803,2009
21804,2005
21805,2003
21816,1990
21817,1991
21818,1984
21819,1975
21820,1975
21821,1977
21822,1969
21823,1967
21824,1957
21825,1951
21826,1946
21827,1940
21828,1936
21829,1931
21830,1920
21831,1922
21832,1918
21833,1910
21834,1905
21835,1903
21836,1897
21837,1902
21838,1896
21839,1894
21840,1895
21841,1886
21842,1887
21843,1887
21844,1888
21845,1885
21846,1883
21847,1878
21848,1878
21849,1881
21850,1874
21851,1872
21852,1872
21853,1867
21854,1866
21855,1862
21856,1853
21857,1856
21858,1855
21859,1846
21860,1841
21861,1840
21862,1830
21863,1833
21864,1829
21865,1819
21866,1815
21867,1813
21868,1813
21869,1808
21870,1808
21871,1808
21872,1803
21873,1806
21874,1801
21875,1799
21876,1794
21877,1790
21878,1783
21879,1785
21880,1775
21881,1774
21882,1766
21883,1769
21884,1761
21885,1755
21886,1755
21887,1747
21888,1749
21889,1739
21890,1743
21891,1737
21892,1733
21893,1730
21894,1726
21895,1723
21896,1722
21897,1724
21898,1722
21899,1722
21900,1726
21901,1730
21902,1725
21903,1726
21904,1726
21905,1722
21906,1717
21907,1712
21908,1710
21909,1706
21910,1696
21911,1690
21912,1686
21913,1683
21914,1677
21915,1680
21916,1675
21917,1671
21918,1669
21919,1668
21920,1669
21921,1667
21922,1669
21923,1663
21924,1665
21925,1661
21926,1657
21927,1657
21928,1650
21929,1645
21930,1638
21931,1634
21932,1632
21933,1628
21934,1617
21935,1614
21936,1603
21937,1600
21938,1600
21939,1597
21940,1591
21941,1591
21942,1595
21943,1589
21944,1591
21945,1591
21946,1591
21947,1591
21948,1587
21949,1586
21950,1585
21951,1583
21952,1584
21953,1582
21954,1577
21955,1574
21956,1574
21957,1559
21958,1565
21959,1578
21960,1552
21961,1535
21962,1535
21963,1552
21964,1535
21965,1535
21966,1535
21967,1535
21968,1530
21969,1530
21970,1535
21971,1531
21972,1527
21973,1529
21974,1521
21975,1522
21976,1524
21977,1521
21978,1522
21979,1518
21980,1519
21981,1517
21982,1517
21983,1506
21984,1504
21985,1502
21986,1504
21987,1495
21988,1491
21989,1493
21990,1491
21991,1494
21992,1490
21993,1491
21994,1488
21995,1493
21996,1491
21997,1488
21998,1488
21999,1505
22000,1488
22001,1487
22002,1481
22003,1477
22004,1478
22005,1475
22006,1471
22007,1474
22008,1470
22009,1466
22010,1463
22011,1466
22012,1469
22013,1469
22014,1475
22015,1458
22016,1467
22017,1472
22018,1467
22019,1461
22020,1458
22021,1459
22022,1458
22023,1455
22024,1455
22025,1454
22026,1448
22027,1443
22028,1455
22029,1451
22030,1446
22031,1450
22032,1441
22033,1443
22034,1439
22035,1435
22036,1438
22037,1439
22038,1438
22039,1438
22040,1434
22041,1438
22042,1435
22043,1439
22044,1434
22045,1435
22046,1431
22047,1430
22048,1442
22049,1427
22050,1431
22051,1424
22052,1427
22053,1424
22054,1424
22055,1425
22066,1424
22067,1424
22068,1425
22069,1427
22070,1426
22071,1427
22072,1424
22073,1422
22074,1418
22075,1415
22076,1407
22077,1405
22078,1403
22079,1404
22080,1399
22081,1397
22082,1398
22083,1397
22084,1395
22085,1394
22086,1401
22087,1392
22088,1396
22089,1393
22090,1399
22091,1408
22092,1394
22093,1393
22094,1392
22095,1392
22096,1391
22097,1390
22098,1387
22099,1386
22100,1381
22101,1378
22102,1375
22103,1379
22104,1373
22105,1367
22106,1373
22107,1371
22108,1374
22109,1376
22110,1375
22111,1379
22112,1378
22113,1381
22114,1381
22115,1379
22116,1392
22117,1381
22118,1380
22119,1380
22120,1375
22121,1374
22122,1375
22123,1374
22124,1373
22125,1369
22126,1369
22127,1367
22128,1365
22129,1361
22130,1361
22131,1364
22132,1360
22133,1362
22134,1361
22135,1363
22136,1363
22137,1367
22138,1361
22139,1369
22140,1367
22141,1371
22142,1374
22143,1375
22144,1376
22145,1373
22146,1371
22147,1370
22148,1377
22149,1375
22150,1372
22151,1374
22152,1365
22153,1361
22154,1363
22155,1361
22156,1359
22157,1362
22158,1370
22159,1360
22160,1365
22161,1367
22162,1369
22163,1367
22164,1366
22165,1367
22166,1369
22167,1365
22168,1362
22169,1367
22170,1363
22171,1362
22172,1366
22173,1363
22174,1371
22175,1371
22176,1372
22177,1378
22178,1390
22179,1377
22180,1377
22181,1379
22182,1377
22183,1376
22184,1379
22185,1375
22186,1371
22187,1366
22188,1371
22189,1367
22190,1362
22191,1370
22192,1365
22193,1360
22194,1358
22195,1360
22196,1355
22197,1358
22198,1360
22199,1355
22200,1360
22201,1360
22202,1360
22203,1359
22204,1360
22205,1360
22206,1359
22207,1360
22208,1359
22209,1360
22210,1360
22211,1360
22212,1360
22213,1360
22214,1363
22215,1363
22216,1367
22217,1373
22218,1371
22219,1374
22220,1376
22221,1378
22222,1377
22223,1375
22224,1383
22225,1391
22226,1392
22227,1399
22228,1399
22229,1407
22230,1415
22231,1424
22232,1424
22233,1428
22234,1434
22235,1437
22236,1439
22237,1441
22238,1448
22239,1449
22240,1449
22241,1445
22242,1443
22243,1442
22244,1441
22245,1438
22246,1433
22247,1432
22248,1427
22249,1426
22250,1429
22251,1437
22252,1447
22253,1453
22254,1458
22255,1468
22256,1481
22257,1488
22258,1492
22259,1503
22260,1503
22261,1491
22262,1518
22263,1516
22264,1514
22265,1520
22266,1518
22267,1510
22268,1510
22269,1513
22270,1510
22271,1514
22272,1516
22273,1520
22274,1520
22275,1527
22276,1527
22277,1535
22278,1535
22279,1535
22280,1535
22281,1535
22282,1535
22283,1535
22284,1535
22285,1532
22286,1530
22287,1522
22288,1520
22289,1509
22290,1511
22291,1505
22292,1490
22293,1487
22294,1477
22295,1465
22296,1456
22297,1442
22298,1431
22299,1411
22300,1405
22301,1391
22302,1380
22303,1371
22304,1362
22305,1358
22316,1350
22317,1356
22318,1357
22319,1356
22320,1362
22321,1369
22322,1367
22323,1370
22324,1371
22325,1371
22326,1370
22327,1375
22328,1369
22329,1369
22330,1363
22331,1365
22332,1370
22333,1370
22334,1367
22335,1366
22336,1370
22337,1369
22338,1364
22339,1367
22340,1367
22341,1368
22342,1363
22343,1373
22344,1370
22345,1376
22346,1377
22347,1375
22348,1377
22349,1377
22350,1382
22351,1381
22352,1380
22353,1376
22354,1376
22355,1385
22356,1383
22357,1385
22358,1386
22359,1383
22360,1388
22361,1397
22362,1397
22363,1406
22364,1414
22365,1424
22366,1441
22367,1446
22368,1469
22369,1489
22370,1509
22371,1523
22372,1535
22373,1557
22374,1574
22375,1582
22376,1584
22377,1586
22378,1591
22379,1591
22380,1595
22381,1605
22382,1619
22383,1635
22384,1648
22385,1676
22386,1703
22387,1744
22388,1793
22389,1849
22390,1906
22391,1968
22392,2035
22393,2100
22394,2160
22395,2215
22396,2273
22397,2307
22398,2331
22399,2329
22400,2303
22401,2263
22402,2208
22403,2147
22404,2088
22405,2023
22406,1969
22407,1917
22408,1872
22409,1839
22410,1807
22411,1790
22412,1786
22413,1777
22414,1782
22415,1791
22416,1799
22417,1810
22418,1823
22419,1823
22420,1823
22421,1816
22422,1808
22423,1793
22424,1774
22425,1763
22426,1744
22427,1728
22428,1703
22429,1687
22430,1664
22431,1648
22432,1629
22433,1616
22434,1602
22435,1598
22436,1585
22437,1580
22438,1573
22439,1563
22440,1561
22441,1552
22442,1535
22443,1526
22444,1518
22445,1503
22446,1495
22447,1479
22448,1471
22449,1461
22450,1452
22451,1438
22452,1431
22453,1425
22454,1411
22455,1410
22456,1408
22457,1399
22458,1395
22459,1401
22460,1399
22461,1399
22462,1393
22463,1394
22464,1401
22465,1407
22466,1411
22467,1410
22468,1418
22469,1419
22470,1413
22471,1422
22472,1424
22473,1418
22474,1421
22475,1417
22476,1412
22477,1407
22478,1408
22479,1407
22480,1407
22481,1407
22482,1405
22483,1411
22484,1418
22485,1421
22486,1427
22487,1426
22488,1435
22489,1439
22490,1442
22491,1449
22492,1450
22493,1453
22494,1457
22495,1459
22496,1468
22497,1464
22498,1462
22499,1463
22500,1463
22501,1466
22502,1462
22503,1459
22504,1456
22505,1456
22506,1446
22507,1447
22508,1456
22509,1451
22510,1458
22511,1454
22512,1458
22513,1458
22514,1466
22515,1466
22516,1469
22517,1475
22518,1478
22519,1479
22520,1479
22521,1485
22522,1488
22523,1492
22524,1487
22525,1490
22526,1488
22527,1492
22528,1494
22529,1495
22530,1495
22531,1493
22532,1495
22533,1493
22534,1501
22535,1494
22536,1491
22537,1493
22538,1498
22539,1503
22540,1505
22541,1514
22542,1509
22543,1519
22544,1522
22545,1525
22546,1521
22547,1526
22548,1532
22549,1533
22550,1532
22551,1535
22552,1535
22553,1535
22554,1534
22555,1535
22566,1579
22567,1584
22568,1585
22569,1590
22570,1596
22571,1597
22572,1605
22573,1611
22574,1609
22575,1610
22576,1616
22577,1606
22578,1602
22579,1605
22580,1609
22581,1614
22582,1619
22583,1611
22584,1622
22585,1627
22586,1631
22587,1622
22588,1630
22589,1643
22590,1642
22591,1647
22592,1651
22593,1658
22594,1662
22595,1664
22596,1664
22597,1667
22598,1673
22599,1673
22600,1675
22601,1674
22602,1678
22603,1674
22604,1681
22605,1678
22606,1683
22607,1685
22608,1690
22609,1691
22610,1694
22611,1696
22612,1706
22613,1709
22614,1712
22615,1719
22616,1730
22617,1730
22618,1738
22619,1741
22620,1746
22621,1755
22622,1759
22623,1771
22624,1777
22625,1776
22626,1779
22627,1787
22628,1790
22629,1795
22630,1791
22631,1804
22632,1809
22633,1811
22634,1818
22635,1818
22636,1823
22637,1825
22638,1834
22639,1837
22640,1838
22641,1840
22642,1852
22643,1858
22644,1861
22645,1869
22646,1875
22647,1878
22648,1885
22649,1904
22650,1904
22651,1910
22652,1912
22653,1922
22654,1935
22655,1938
22656,1942
22657,1943
22658,1951
22659,1957
22660,1946
22661,1951
22662,1950
22663,1947
22664,1955
22665,1951
22666,1953
22667,1952
22668,1955
22669,1959
22670,1962
22671,1958
22672,1961
22673,1961
22674,1963
22675,1963
22676,1967
22677,1968
22678,1967
22679,1967
22680,1968
22681,1959
22682,1961
22683,1955
22684,1950
22685,1943
22686,1938
22687,1934
22688,1926
22689,1923
22690,1907
22691,1908
22692,1897
22693,1891
22694,1883
22695,1873
22696,1872
22697,1862
22698,1857
22699,1850
22700,1840
22701,1833
22702,1821
22703,1813
22704,1808
22705,1799
22706,1785
22707,1774
22708,1759
22709,1746
22710,1733
22711,1721
22712,1714
22713,1711
22714,1702
22715,1691
22716,1680
22717,1680
22718,1679
22719,1662
22720,1660
22721,1648
22722,1642
22723,1634
22724,1623
22725,1616
22726,1607
22727,1600
22728,1590
22729,1589
22730,1579
22731,1574
22732,1569
22733,1570
22734,1563
22735,1558
22736,1555
22737,1554
22738,1553
22739,1535
22740,1535
22741,1531
22742,1523
22743,1519
22744,1515
22745,1511
22746,1507
22747,1503
22748,1494
22749,1493
22750,1495
22751,1495
22752,1494
22753,1492
22754,1492
22755,1501
22756,1490
22757,1499
22758,1503
22759,1500
22760,1501
22761,1500
22762,1505
22763,1503
22764,1503
22765,1502
22766,1498
22767,1497
22768,1497
22769,1496
22770,1497
22771,1493
22772,1495
22773,1502
22774,1502
22775,1506
22776,1511
22777,1513
22778,1519
22779,1520
22780,1525
22781,1527
22782,1529
22783,1533
22784,1530
22785,1531
22786,1535
22787,1530
22788,1535
22789,1535
22790,1535
22791,1535
22792,1535
22793,1535
22794,1555
22795,1555
22796,1557
22797,1565
22798,1565
22799,1566
22800,1571
22801,1574
22802,1572
22803,1578
22804,1579
22805,1577
22816,1605
22817,1604
22818,1611
22819,1613
22820,1615
22821,1611
22822,1610
22823,1605
22824,1607
22825,1607
22826,1611
22827,1615
22828,1610
22829,1617
22830,1616
22831,1628
22832,1627
22833,1632
22834,1637
22835,1632
22836,1635
22837,1638
22838,1643
22839,1639
22840,1639
22841,1643
22842,1648
22843,1647
22844,1648
22845,1645
22846,1646
22847,1648
22848,1648
22849,1648
22850,1648
22851,1645
22852,1643
22853,1648
22854,1638
22855,1639
22856,1643
22857,1643
22858,1647
22859,1645
22860,1647
22861,1648
22862,1650
22863,1648
22864,1653
22865,1649
22866,1655
22867,1659
22868,1655
22869,1664
22870,1658
22871,1662
22872,1662
22873,1659
22874,1663
22875,1665
22876,1664
22877,1667
22878,1663
22879,1663
22880,1659
22881,1658
22882,1661
22883,1662
22884,1655
22885,1662
22886,1662
22887,1663
22888,1670
22889,1667
22890,1665
22891,1675
22892,1675
22893,1680
22894,1683
22895,1683
22896,1681
22897,1681
22898,1685
22899,1685
22900,1681
22901,1687
22902,1683
22903,1687
22904,1683
22905,1686
22906,1685
22907,1685
22908,1681
22909,1689
22910,1683
22911,1685
22912,1683
22913,1683
22914,1682
22915,1683
22916,1685
22917,1690
22918,1680
22919,1686
22920,1690
22921,1686
22922,1695
22923,1693
22924,1696
22925,1701
22926,1707
22927,1703
22928,1707
22929,1712
22930,1713
22931,1712
22932,1713
22933,1713
22934,1714
22935,1719
22936,1719
22937,1718
22938,1723
22939,1725
22940,1721
22941,1728
22942,1727
22943,1728
22944,1725
22945,1725
22946,1725
22947,1722
22948,1718
22949,1718
22950,1723
22951,1717
22952,1719
22953,1717
22954,1724
22955,1727
22956,1727
22957,1733
22958,1731
22959,1729
22960,1729
22961,1728
22962,1727
22963,1731
22964,1732
22965,1739
22966,1741
22967,1739
22968,1744
22969,1743
22970,1744
22971,1751
22972,1749
22973,1749
22974,1747
22975,1751
22976,1749
22977,1749
22978,1756
22979,1759
22980,1761
22981,1759
22982,1770
22983,1766
22984,1773
22985,1769
22986,1765
22987,1773
22988,1771
22989,1775
22990,1771
22991,1769
22992,1765
22993,1766
22994,1770
22995,1762
22996,1770
22997,1769
22998,1773
22999,1775
23000,1777
23001,1782
23002,1785
23003,1796
23004,1802
23005,1806
23006,1808
23007,1814
23008,1818
23009,1821
23010,1821
23011,1825
23012,1825
23013,1825
23014,1823
23015,1823
23016,1828
23017,1823
23018,1827
23019,1827
23020,1831
23021,1821
23022,1826
23023,1831
23024,1826
23025,1834
23026,1833
23027,1826
23028,1833
23029,1835
23030,1835
23031,1834
23032,1839
23033,1840
23034,1840
23035,1841
23036,1843
23037,1845
23038,1849
23039,1846
23040,1849
23041,1854
23042,1856
23043,1859
23044,1859
23045,1869
23046,1866
23047,1870
23048,1872
23049,1873
23050,1871
23051,1872
23052,1876
23053,1874
23054,1879
23055,1872
23066,1869
23067,1866
23068,1872
23069,1872
23070,1874
23071,1882
23072,1883
23073,1887
23074,1884
23075,1893
23076,1890
23077,1898
23078,1898
23079,1902
23080,1899
23081,1897
23082,1888
23083,1891
23084,1887
23085,1887
23086,1881
23087,1874
23088,1884
23089,1878
23090,1879
23091,1879
23092,1887
23093,1889
23094,1894
23095,1893
23096,1898
23097,1898
23098,1898
23099,1896
23100,1899
23101,1900
23102,1904
23103,1898
23104,1902
23105,1900
23106,1894
23107,1901
23108,1902
23109,1904
23110,1905
23111,1905
23112,1910
23113,1910
23114,1911
23115,1909
23116,1911
23117,1905
23118,1910
23119,1919
23120,1904
23121,1904
23122,1902
23123,1902
23124,1898
23125,1894
23126,1890
23127,1897
23128,1904
23129,1906
23130,1905
23131,1902
23132,1907
23133,1907
23134,1909
23135,1909
23136,1908
23137,1910
23138,1913
23139,1914
23140,1909
23141,1915
23142,1915
23143,1920
23144,1916
23145,1920
23146,1929
23147,1930
23148,1930
23149,1933
23150,1934
23151,1933
23152,1936
23153,1931
23154,1933
23155,1927
23156,1919
23157,1915
23158,1917
23159,1904
23160,1906
23161,1911
23162,1911
23163,1914
23164,1924
23165,1933
23166,1939
23167,1949
23168,1958
23169,1963
23170,1968
23171,1975
23172,1985
23173,1993
23174,1995
23175,1998
23176,2002
23177,2000
23178,2010
23179,2006
23180,2015
23181,2010
23182,2014
23183,2014
23184,2017
23185,2014
23186,2017
23187,2016
23188,2026
23189,2029
23190,2023
23191,2021
23192,2021
23193,2022
23194,2029
23195,2028
23196,2033
23197,2032
23198,2032
23199,2038
23200,2047
23201,2059
23202,2066
23203,2081
23204,2094
23205,2098
23206,2112
23207,2122
23208,2128
23209,2134
23210,2141
23211,2144
23212,2146
23213,2143
23214,2148
23215,2143
23216,2138
23217,2142
23218,2139
23219,2141
23220,2134
23221,2136
23222,2131
23223,2131
23224,2133
23225,2133
23226,2142
23227,2144
23228,2142
23229,2143
23230,2147
23231,2145
23232,2144
23233,2139
23234,2129
23235,2128
23236,2125
23237,2116
23238,2112
23239,2103
23240,2096
23241,2090
23242,2078
23243,2062
23244,2046
23245,2032
23246,2018
23247,2003
23248,1995
23249,1983
23250,1977
23251,1967
23252,1969
23253,1961
23254,1965
23255,1962
23256,1959
23257,1962
23258,1961
23259,1962
23260,1955
23261,1962
23262,1959
23263,1955
23264,1965
23265,1953
23266,1955
23267,1958
23268,1955
23269,1963
23270,1961
23271,1963
23272,1967
23273,1968
23274,1967
23275,1967
23276,1968
23277,1964
23278,1968
23279,1963
23280,1962
23281,1954
23282,1955
23283,1954
23284,1949
23285,1948
23286,1947
23287,1947
23288,1943
23289,1950
23290,1947
23291,1949
23292,1952
23293,1956
23294,1955
23295,1953
23296,1955
23297,1959
23298,1961
23299,1958
23300,1958
23301,1955
23302,1951
23303,1950
23304,1951
23305,1950
23306,1949
23317,1968
23318,1983
23319,2000
23320,2010
23321,2032
23322,2047
23323,2066
23324,2083
23325,2082
23326,2098
23327,2108
23328,2117
23329,2128
23330,2134
23331,2146
23332,2163
23333,2179
23334,2206
23335,2240
23336,2273
23337,2320
23338,2374
23339,2434
23340,2506
23341,2583
23342,2658
23343,2719
23344,2785
23345,2847
23346,2907
23347,2944
23348,2959
23349,2943
23350,2910
23351,2852
23352,2790
23353,2709
23354,2642
23355,2582
23356,2513
23357,2464
23358,2422
23359,2393
23360,2373
23361,2352
23362,2347
23363,2341
23364,2342
23365,2349
23366,2351
23367,2361
23368,2366
23369,2374
23370,2379
23371,2384
23372,2383
23373,2378
23374,2367
23375,2354
23376,2342
23377,2320
23378,2295
23379,2277
23380,2254
23381,2234
23382,2218
23383,2201
23384,2191
23385,2175
23386,2172
23387,2165
23388,2160
23389,2151
23390,2145
23391,2131
23392,2129
23393,2123
23394,2112
23395,2099
23396,2089
23397,2077
23398,2064
23399,2041
23400,2032
23401,2029
23402,2020
23403,2013
23404,2008
23405,2006
23406,2000
23407,2000
23408,2000
23409,1998
23410,2002
23411,2000
23412,2000
23413,2002
23414,2003
23415,2000
23416,2007
23417,2001
23418,2000
23419,1998
23420,1997
23421,1995
23422,1989
23423,1987
23424,1987
23425,1987
23426,1985
23427,1983
23428,1982
23429,1987
23430,1987
23431,1991
23432,1990
23433,1997
23434,1993
23435,1991
23436,1999
23437,2003
23438,2001
23439,2003
23440,2001
23441,2002
23442,2002
23443,2005
23444,2001
23445,2003
23446,2004
23447,2005
23448,2015
23449,2017
23450,2019
23451,2029
23452,2031
23453,2031
23454,2034
23455,2039
23456,2043
23457,2042
23458,2047
23459,2047
23460,2055
23461,2055
23462,2058
23463,2062
23464,2066
23465,2064
23466,2068
23467,2074
23468,2077
23469,2080
23470,2085
23471,2083
23472,2083
23473,2093
23474,2092
23475,2094
23476,2098
23477,2099
23478,2099
23479,2105
23480,2110
23481,2107
23482,2101
23483,2106
23484,2107
23485,2109
23486,2107
23487,2106
23488,2107
23489,2104
23490,2105
23491,2106
23492,2105
23493,2101
23494,2104
23495,2103
23496,2112
23497,2113
23498,2114
23499,2121
23500,2128
23501,2127
23502,2137
23503,2143
23504,2139
23505,2146
23506,2144
23507,2149
23508,2155
23509,2153
23510,2150
23511,2150
23512,2157
23513,2153
23514,2158
23515,2155
23516,2160
23517,2160
23518,2160
23519,2167
23520,2163
23521,2169
23522,2167
23523,2170
23524,2175
23525,2176
23526,2176
23527,2178
23528,2183
23529,2186
23530,2182
23531,2190
23532,2187
23533,2191
23534,2187
23535,2192
23536,2192
23537,2192
23538,2192
23539,2192
23540,2192
23541,2197
23542,2204
23543,2207
23544,2213
23545,2222
23546,2224
23547,2230
23548,2240
23549,2245
23550,2247
23551,2256
23552,2261
23553,2271
23554,2272
23555,2275
23556,2278
23567,2299
23568,2305
23569,2311
23570,2319
23571,2320
23572,2325
23573,2331
23574,2337
23575,2339
23576,2349
23577,2352
23578,2358
23579,2369
23580,2370
23581,2375
23582,2375
23583,2384
23584,2385
23585,2393
23586,2391
23587,2398
23588,2403
23589,2413
23590,2417
23591,2417
23592,2422
23593,2429
23594,2433
23595,2437
23596,2447
23597,2448
23598,2448
23599,2450
23600,2459
23601,2459
23602,2466
23603,2465
23604,2469
23605,2471
23606,2477
23607,2479
23608,2480
23609,2479
23610,2480
23611,2482
23612,2487
23613,2481
23614,2487
23615,2487
23616,2491
23617,2490
23618,2491
23619,2494
23620,2497
23621,2495
23622,2499
23623,2498
23624,2497
23625,2497
23626,2497
23627,2495
23628,2495
23629,2489
23630,2487
23631,2482
23632,2480
23633,2470
23634,2471
23635,2469
23636,2465
23637,2464
23638,2458
23639,2448
23640,2445
23641,2433
23642,2423
23643,2421
23644,2413
23645,2402
23646,2388
23647,2381
23648,2370
23649,2355
23650,2341
23651,2337
23652,2322
23653,2315
23654,2302
23655,2294
23656,2282
23657,2270
23658,2263
23659,2251
23660,2245
23661,2236
23662,2231
23663,2224
23664,2213
23665,2207
23666,2203
23667,2194
23668,2181
23669,2179
23670,2171
23671,2163
23672,2157
23673,2148
23674,2142
23675,2128
23676,2123
23677,2112
23678,2112
23679,2099
23680,2098
23681,2096
23682,2089
23683,2089
23684,2065
23685,2079
23686,2080
23687,2073
23688,2078
23689,2071
23690,2069
23691,2064
23692,2059
23693,2064
23694,2067
23695,2054
23696,2063
23697,2055
23698,2058
23699,2061
23700,2059
23701,2062
23702,2059
23703,2059
23704,2059
23705,2063
23706,2064
23707,2063
23708,2064
23709,2066
23710,2064
23711,2070
23712,2064
23713,2069
23714,2064
23715,2064
23716,2061
23717,2071
23718,2064
23719,2064
23720,2065
23721,2073
23722,2069
23723,2071
23724,2075
23725,2079
23726,2080
23727,2085
23728,2086
23729,2085
23730,2085
23731,2093
23732,2095
23733,2087
23734,2096
23735,2097
23736,2101
23737,2109
23738,2103
23739,2109
23740,2112
23741,2119
23742,2107
23743,2109
23744,2105
23745,2099
23746,2098
23747,2098
23748,2101
23749,2097
23750,2098
23751,2101
23752,2103
23753,2100
23754,2102
23755,2110
23756,2111
23757,2107
23758,2109
23759,2102
23760,2110
23761,2112
23762,2112
23763,2112
23764,2111
23765,2114
23766,2119
23767,2118
23768,2124
23769,2129
23770,2129
23771,2127
23772,2126
23773,2127
23774,2127
23775,2125
23776,2127
23777,2118
23778,2123
23779,2117
23780,2128
23781,2128
23782,2126
23783,2128
23784,2128
23785,2135
23786,2139
23787,2139
23788,2144
23789,2144
23790,2146
23791,2144
23792,2143
23793,2141
23794,2145
23795,2143
23796,2135
23797,2133
23798,2139
23799,2138
23800,2134
23801,2123
23802,2129
23803,2134
23804,2129
23805,2132
23806,2128
23817,2143
23818,2144
23819,2144
23820,2135
23821,2141
23822,2138
23823,2135
23824,2138
23825,2139
23826,2135
23827,2133
23828,2139
23829,2142
23830,2141
23831,2137
23832,2139
23833,2132
23834,2138
23835,2132
23836,2133
23837,2131
23838,2128
23839,2129
23840,2126
23841,2128
23842,2122
23843,2123
23844,2125
23845,2131
23846,2129
23847,2127
23848,2128
23849,2128
23850,2128
23851,2130
23852,2128
23853,2125
23854,2127
23855,2128
23856,2123
23857,2128
23858,2128
23859,2128
23860,2128
23861,2128
23862,2126
23863,2127
23864,2128
23865,2125
23866,2116
23867,2119
23868,2117
23869,2118
23870,2118
23871,2117
23872,2119
23873,2121
23874,2123
23875,2121
23876,2122
23877,2127
23878,2123
23879,2128
23880,2128
23881,2127
23882,2129
23883,2130
23884,2129
23885,2128
23886,2123
23887,2126
23888,2121
23889,2123
23890,2124
23891,2124
23892,2121
23893,2123
23894,2117
23895,2117
23896,2122
23897,2128
23898,2125
23899,2118
23900,2121
23901,2122
23902,2124
23903,2126
23904,2125
23905,2127
23906,2129
23907,2132
23908,2135
23909,2138
23910,2135
23911,2141
23912,2139
23913,2141
23914,2138
23915,2135
23916,2134
23917,2138
23918,2131
23919,2137
23920,2138
23921,2138
23922,2139
23923,2135
23924,2138
23925,2137
23926,2134
23927,2131
23928,2127
23929,2129
23930,2128
23931,2123
23932,2128
23933,2124
23934,2122
23935,2125
23936,2127
23937,2128
23938,2128
23939,2126
23940,2130
23941,2132
23942,2129
23943,2137
23944,2135
23945,2131
23946,2130
23947,2135
23948,2138
23949,2131
23950,2138
23951,2143
23952,2142
23953,2145
23954,2142
23955,2143
23956,2141
23957,2141
23958,2139
23959,2142
23960,2141
23961,2128
23962,2129
23963,2131
23964,2130
23965,2128
23966,2131
23967,2127
23968,2127
23969,2127
23970,2128
23971,2127
23972,2128
23973,2133
23974,2131
23975,2128
23976,2128
23977,2128
23978,2128
23979,2129
23980,2122
23981,2128
23982,2126
23983,2126
23984,2128
23985,2128
23986,2128
23987,2128
23988,2128
23989,2135
23990,2135
23991,2142
23992,2141
23993,2141
23994,2143
23995,2145
23996,2147
23997,2154
23998,2160
23999,2161
24000,2165
24001,2172
24002,2169
24003,2179
24004,2190
24005,2192
24006,2194
24007,2206
24008,2210
24009,2219
24010,2223
24011,2226
24012,2231
24013,2235
24014,2238
24015,2243
24016,2246
24017,2250
24018,2256
24019,2258
24020,2266
24021,2265
24022,2268
24023,2281
24024,2281
24025,2287
24026,2288
24027,2291
24028,2293
24029,2299
24030,2304
24031,2310
24032,2317
24033,2320
24034,2319
24035,2320
24036,2326
24037,2330
24038,2335
24039,2332
24040,2337
24041,2334
24042,2338
24043,2336
24044,2341
24045,2339
24046,2342
24047,2339
24048,2337
24049,2339
24050,2337
24051,2338
24052,2337
24053,2341
24054,2336
24055,2339
24056,2339
24067,2352
24068,2353
24069,2354
24070,2361
24071,2357
24072,2365
24073,2365
24074,2363
24075,2368
24076,2367
24077,2368
24078,2369
24079,2367
24080,2366
24081,2363
24082,2366
24083,2367
24084,2368
24085,2365
24086,2365
24087,2366
24088,2367
24089,2364
24090,2368
24091,2365
24092,2365
24093,2366
24094,2369
24095,2368
24096,2368
24097,2373
24098,2363
24099,2366
24100,2365
24101,2363
24102,2361
24103,2359
24104,2359
24105,2362
24106,2355
24107,2357
24108,2355
24109,2355
24110,2356
24111,2362
24112,2362
24113,2361
24114,2359
24115,2363
24116,2365
24117,2369
24118,2371
24119,2370
24120,2378
24121,2379
24122,2390
24123,2395
24124,2395
24125,2400
24126,2406
24127,2405
24128,2407
24129,2412
24130,2415
24131,2415
24132,2414
24133,2416
24134,2416
24135,2417
24136,2418
24137,2419
24138,2416
24139,2416
24140,2415
24141,2416
24142,2403
24143,2410
24144,2409
24145,2414
24146,2409
24147,2413
24148,2416
24149,2427
24150,2423
24151,2432
24152,2443
24153,2448
24154,2451
24155,2455
24156,2464
24157,2467
24158,2473
24159,2474
24160,2475
24161,2465
24162,2463
24163,2459
24164,2454
24165,2457
24166,2454
24167,2451
24168,2450
24169,2448
24170,2448
24171,2449
24172,2448
24173,2450
24174,2454
24175,2458
24176,2455
24177,2455
24178,2455
24179,2457
24180,2449
24181,2448
24182,2446
24183,2439
24184,2431
24185,2423
24186,2415
24187,2410
24188,2395
24189,2384
24190,2375
24191,2366
24192,2354
24193,2340
24194,2315
24195,2308
24196,2294
24197,2279
24198,2269
24199,2255
24200,2245
24201,2235
24202,2230
24203,2225
24204,2219
24205,2214
24206,2210
24207,2205
24208,2202
24209,2195
24210,2194
24211,2197
24212,2191
24213,2189
24214,2189
24215,2189
24216,2188
24217,2187
24218,2184
24219,2192
24220,2185
24221,2183
24222,2186
24223,2186
24224,2185
24225,2191
24226,2187
24227,2189
24228,2187
24229,2186
24230,2189
24231,2188
24232,2181
24233,2190
24234,2186
24235,2179
24236,2188
24237,2185
24238,2182
24239,2177
24240,2181
24241,2181
24242,2178
24243,2183
24244,2178
24245,2169
24246,2172
24247,2170
24248,2166
24249,2163
24250,2166
24251,2164
24252,2160
24253,2162
24254,2160
24255,2157
24256,2155
24257,2154
24258,2150
24259,2156
24260,2157
24261,2155
24262,2160
24263,2170
24264,2177
24265,2192
24266,2207
24267,2224
24268,2245
24269,2263
24270,2286
24271,2305
24272,2321
24273,2339
24274,2351
24275,2349
24276,2355
24277,2354
24278,2364
24279,2369
24280,2383
24281,2410
24282,2425
24283,2446
24284,2480
24285,2514
24286,2559
24287,2614
24288,2672
24289,2736
24290,2800
24291,2869
24292,2948
24293,3004
24294,3070
24295,3130
24296,3169
24297,3187
24298,3171
24299,3147
24300,3088
24301,3019
24302,2946
24303,2872
24304,2810
24305,2745
24306,2688
24317,2435
24318,2433
24319,2415
24320,2400
24321,2384
24322,2371
24323,2365
24324,2346
24325,2335
24326,2320
24327,2311
24328,2294
24329,2288
24330,2283
24331,2276
24332,2266
24333,2261
24334,2255
24335,2243
24336,2249
24337,2242
24338,2235
24339,2223
24340,2213
24341,2197
24342,2185
24343,2162
24344,2160
24345,2134
24346,2128
24347,2114
24348,2096
24349,2096
24350,2084
24351,2075
24352,2065
24353,2063
24354,2055
24355,2055
24356,2057
24357,2043
24358,2055
24359,2039
24360,2032
24361,2036
24362,2037
24363,2034
24364,2032
24365,2031
24366,2032
24367,2032
24368,2033
24369,2032
24370,2031
24371,2032
24372,2032
24373,2032
24374,2029
24375,2022
24376,2027
24377,2026
24378,2025
24379,2025
24380,2018
24381,2016
24382,2019
24383,2011
24384,2016
24385,2015
24386,2013
24387,2017
24388,2023
24389,2013
24390,2026
24391,2022
24392,2018
24393,2023
24394,2022
24395,2020
24396,2023
24397,2017
24398,2016
24399,2019
24400,2014
24401,2016
24402,2009
24403,2010
24404,2010
24405,2009
24406,2010
24407,2009
24408,2016
24409,2014
24410,2015
24411,2014
24412,2015
24413,2010
24414,2016
24415,2018
24416,2015
24417,2016
24418,2021
24419,2015
24420,2019
24421,2020
24422,2016
24423,2018
24424,2020
24425,2023
24426,2028
24427,2029
24428,2016
24429,2034
24430,2035
24431,2043
24432,2039
24433,2044
24434,2047
24435,2043
24436,2053
24437,2046
24438,2042
24439,2041
24440,2039
24441,2034
24442,2036
24443,2035
24444,2032
24445,2032
24446,2033
24447,2032
24448,2034
24449,2032
24450,2037
24451,2034
24452,2038
24453,2039
24454,2043
24455,2041
24456,2041
24457,2043
24458,2042
24459,2038
24460,2043
24461,2042
24462,2047
24463,2046
24464,2046
24465,2047
24466,2047
24467,2047
24468,2063
24469,2064
24470,2062
24471,2053
24472,2057
24473,2055
24474,2061
24475,2057
24476,2045
24477,2054
24478,2055
24479,2054
24480,2054
24481,2055
24482,2047
24483,2055
24484,2059
24485,2061
24486,2064
24487,2065
24488,2064
24489,2065
24490,2073
24491,2076
24492,2079
24493,2082
24494,2085
24495,2079
24496,2086
24497,2092
24498,2090
24499,2092
24500,2096
24501,2098
24502,2100
24503,2109
24504,2106
24505,2111
24506,2112
24507,2113
24508,2114
24509,2118
24510,2121
24511,2123
24512,2127
24513,2131
24514,2134
24515,2133
24516,2143
24517,2141
24518,2154
24519,2154
24520,2160
24521,2165
24522,2167
24523,2174
24524,2175
24525,2186
24526,2187
24527,2194
24528,2199
24529,2203
24530,2199
24531,2208
24532,2210
24533,2214
24534,2219
24535,2224
24536,2223
24537,2226
24538,2229
24539,2229
24540,2230
24541,2231
24542,2235
24543,2235
24544,2241
24545,2243
24546,2250
24547,2250
24548,2257
24549,2257
24550,2267
24551,2266
24552,2277
24553,2278
24554,2278
24555,2285
24556,2290
24567,2298
24568,2294
24569,2293
24570,2290
24571,2292
24572,2289
24573,2288
24574,2288
24575,2288
24576,2286
24577,2285
24578,2277
24579,2271
24580,2271
24581,2263
24582,2257
24583,2256
24584,2253
24585,2241
24586,2239
24587,2224
24588,2215
24589,2207
24590,2198
24591,2189
24592,2176
24593,2163
24594,2158
24595,2141
24596,2135
24597,2128
24598,2115
24599,2109
24600,2101
24601,2094
24602,2082
24603,2066
24604,2061
24605,2042
24606,2031
24607,2021
24608,2008
24609,2000
24610,1991
24611,1978
24612,1964
24613,1955
24614,1949
24615,1937
24616,1929
24617,1921
24618,1913
24619,1904
24620,1897
24621,1888
24622,1878
24623,1872
24624,1865
24625,1863
24626,1851
24627,1841
24628,1842
24629,1840
24630,1840
24631,1838
24632,1835
24633,1831
24634,1827
24635,1821
24636,1823
24637,1818
24638,1810
24639,1807
24640,1808
24641,1802
24642,1806
24643,1799
24644,1795
24645,1788
24646,1789
24647,1782
24648,1783
24649,1778
24650,1780
24651,1776
24652,1776
24653,1776
24654,1771
24655,1776
24656,1773
24657,1770
24658,1772
24659,1773
24660,1770
24661,1771
24662,1770
24663,1777
24664,1770
24665,1772
24666,1771
24667,1776
24668,1775
24669,1776
24670,1775
24671,1777
24672,1774
24673,1776
24674,1777
24675,1779
24676,1778
24677,1778
24678,1782
24679,1778
24680,1787
24681,1788
24682,1790
24683,1788
24684,1796
24685,1792
24686,1791
24687,1791
24688,1793
24689,1792
24690,1793
24691,1792
24692,1802
24693,1793
24694,1805
24695,1801
24696,1803
24697,1808
24698,1806
24699,1808
24700,1811
24701,1810
24702,1808
24703,1818
24704,1814
24705,1818
24706,1818
24707,1824
24708,1825
24709,1825
24710,1822
24711,1818
24712,1826
24713,1823
24714,1825
24715,1826
24716,1817
24717,1824
24718,1822
24719,1825
24720,1827
24721,1825
24722,1826
24723,1831
24724,1830
24725,1839
24726,1836
24727,1840
24728,1838
24729,1841
24730,1849
24731,1846
24732,1852
24733,1850
24734,1853
24735,1847
24736,1854
24737,1855
24738,1857
24739,1858
24740,1859
24741,1862
24742,1863
24743,1859
24744,1867
24745,1863
24746,1865
24747,1865
24748,1863
24749,1861
24750,1864
24751,1863
24752,1862
24753,1861
24754,1857
24755,1859
24756,1861
24757,1860
24758,1862
24759,1861
24760,1862
24761,1860
24762,1867
24763,1863
24764,1867
24765,1871
24766,1869
24767,1871
24768,1872
24769,1874
24770,1873
24771,1872
24772,1872
24773,1867
24774,1869
24775,1870
24776,1871
24777,1872
24778,1866
24779,1868
24780,1866
24781,1861
24782,1857
24783,1861
24784,1858
24785,1861
24786,1858
24787,1855
24788,1851
24789,1857
24790,1853
24791,1853
24792,1846
24793,1852
24794,1847
24795,1850
24796,1846
24797,1843
24798,1841
24799,1841
24800,1842
24801,1842
24802,1844
24803,1845
24804,1845
24805,1849
24806,1843
24817,1846
24818,1847
24819,1843
24820,1845
24821,1844
24822,1839
24823,1841
24824,1840
24825,1834
24826,1837
24827,1835
24828,1836
24829,1826
24830,1822
24831,1823
24832,1825
24833,1823
24834,1817
24835,1824
24836,1828
24837,1826
24838,1827
24839,1827
24840,1830
24841,1826
24842,1827
24843,1823
24844,1826
24845,1826
24846,1825
24847,1828
24848,1828
24849,1823
24850,1829
24851,1829
24852,1835
24853,1833
24854,1831
24855,1831
24856,1830
24857,1834
24858,1833
24859,1837
24860,1833
24861,1838
24862,1837
24863,1835
24864,1835
24865,1836
24866,1839
24867,1837
24868,1842
24869,1844
24870,1847
24871,1837
24872,1840
24873,1842
24874,1844
24875,1845
24876,1845
24877,1841
24878,1840
24879,1842
24880,1847
24881,1838
24882,1840
24883,1838
24884,1846
24885,1839
24886,1834
24887,1841
24888,1839
24889,1840
24890,1839
24891,1838
24892,1839
24893,1835
24894,1838
24895,1845
24896,1841
24897,1840
24898,1840
24899,1840
24900,1842
24901,1843
24902,1842
24903,1844
24904,1840
24905,1840
24906,1840
24907,1843
24908,1845
24909,1845
24910,1847
24911,1840
24912,1843
24913,1847
24914,1842
24915,1842
24916,1846
24917,1840
24918,1840
24919,1840
24920,1831
24921,1839
24922,1835
24923,1838
24924,1829
24925,1837
24926,1837
24927,1825
24928,1831
24929,1830
24930,1830
24931,1826
24932,1831
24933,1815
24934,1828
24935,1823
24936,1824
24937,1826
24938,1825
24939,1821
24940,1825
24941,1825
24942,1823
24943,1834
24944,1826
24945,1824
24946,1826
24947,1827
24948,1819
24949,1829
24950,1826
24951,1827
24952,1831
24953,1827
24954,1833
24955,1830
24956,1834
24957,1833
24958,1838
24959,1831
24960,1839
24961,1837
24962,1839
24963,1840
24964,1840
24965,1841
24966,1841
24967,1843
24968,1840
24969,1844
24970,1837
24971,1838
24972,1833
24973,1840
24974,1833
24975,1834
24976,1835
24977,1831
24978,1829
24979,1831
24980,1833
24981,1832
24982,1831
24983,1840
24984,1834
24985,1836
24986,1838
24987,1835
24988,1840
24989,1837
24990,1838
24991,1837
24992,1837
24993,1836
24994,1839
24995,1840
24996,1840
24997,1841
24998,1839
24999,1841
25000,1842
25001,1840
25002,1842
25003,1841
25004,1840
25005,1835
25006,1840
25007,1837
25008,1834
25009,1834
25010,1837
25011,1839
25012,1841
25013,1843
25014,1842
25015,1850
25016,1851
25017,1856
25018,1851
25019,1853
25020,1855
25021,1855
25022,1857
25023,1856
25024,1857
25025,1854
25026,1853
25027,1852
25028,1854
25029,1856
25030,1857
25031,1856
25032,1859
25033,1858
25034,1861
25035,1858
25036,1857
25037,1857
25038,1857
25039,1862
25040,1857
25041,1865
25042,1861
25043,1867
25044,1863
25045,1861
25046,1860
25047,1856
25048,1858
25049,1854
25050,1843
25051,1854
25052,1858
25053,1854
25054,1857
25055,1854
25056,1857
25067,1868
25068,1863
25069,1871
25070,1865
25071,1871
25072,1871
25073,1869
25074,1866
25075,1865
25076,1867
25077,1867
25078,1872
25079,1872
25080,1872
25081,1872
25082,1872
25083,1872
25084,1872
25085,1872
25086,1872
25087,1872
25088,1872
25089,1874
25090,1872
25091,1872
25092,1871
25093,1870
25094,1868
25095,1870
25096,1871
25097,1863
25098,1872
25099,1870
25100,1870
25101,1872
25102,1869
25103,1872
25104,1871
25105,1872
25106,1872
25107,1872
25108,1871
25109,1872
25110,1874
25111,1871
25112,1870
25113,1870
25114,1871
25115,1871
25116,1870
25117,1870
25118,1872
25119,1871
25120,1874
25121,1873
25122,1872
25123,1872
25124,1871
25125,1874
25126,1872
25127,1872
25128,1874
25129,1879
25130,1883
25131,1886
25132,1881
25133,1885
25134,1890
25135,1878
25136,1888
25137,1889
25138,1885
25139,1887
25140,1883
25141,1886
25142,1892
25143,1884
25144,1882
25145,1890
25146,1886
25147,1887
25148,1891
25149,1893
25150,1889
25151,1891
25152,1890
25153,1900
25154,1893
25155,1891
25156,1890
25157,1894
25158,1889
25159,1890
25160,1887
25161,1887
25162,1890
25163,1891
25164,1895
25165,1900
25166,1901
25167,1899
25168,1909
25169,1914
25170,1913
25171,1919
25172,1933
25173,1931
25174,1939
25175,1948
25176,1947
25177,1953
25178,1959
25179,1962
25180,1959
25181,1969
25182,1969
25183,1968
25184,1974
25185,1969
25186,1974
25187,1979
25188,1975
25189,1978
25190,1979
25191,1975
25192,1979
25193,1974
25194,1975
25195,1975
25196,1979
25197,1980
25198,1988
25199,1990
25200,1997
25201,2007
25202,2010
25203,2021
25204,2032
25205,2041
25206,2045
25207,2060
25208,2064
25209,2064
25210,2067
25211,2065
25212,2064
25213,2062
25214,2060
25215,2062
25216,2062
25217,2060
25218,2059
25219,2055
25220,2047
25221,2055
25222,2059
25223,2057
25224,2064
25225,2064
25226,2065
25227,2065
25228,2066
25229,2064
25230,2069
25231,2066
25232,2062
25233,2059
25234,2043
25235,2043
25236,2034
25237,2025
25238,2003
25239,2007
25240,1999
25241,1987
25242,1975
25243,1962
25244,1949
25245,1937
25246,1920
25247,1918
25248,1903
25249,1895
25250,1883
25251,1878
25252,1872
25253,1866
25254,1867
25255,1870
25256,1861
25257,1869
25258,1866
25259,1865
25260,1867
25261,1871
25262,1863
25263,1869
25264,1863
25265,1862
25266,1859
25267,1861
25268,1856
25269,1855
25270,1853
25271,1856
25272,1856
25273,1856
25274,1855
25275,1854
25276,1857
25277,1853
25278,1856
25279,1851
25280,1855
25281,1853
25282,1853
25283,1850
25284,1850
25285,1849
25286,1840
25287,1841
25288,1846
25289,1843
25290,1845
25291,1841
25292,1845
25293,1849
25294,1856
25295,1851
25296,1857
25297,1853
25298,1851
25299,1856
25300,1852
25301,1857
25302,1855
25303,1854
25304,1857
25305,1859
25306,1856
25317,1982
25318,2000
25319,2019
25320,2037
25321,2059
25322,2065
25323,2077
25324,2080
25325,2084
25326,2089
25327,2096
25328,2105
25329,2112
25330,2129
25331,2154
25332,2179
25333,2211
25334,2241
25335,2291
25336,2343
25337,2407
25338,2471
25339,2542
25340,2619
25341,2687
25342,2752
25343,2817
25344,2871
25345,2921
25346,2934
25347,2939
25348,2911
25349,2864
25350,2809
25351,2752
25352,2685
25353,2619
25354,2559
25355,2506
25356,2459
25357,2415
25358,2377
25359,2347
25360,2320
25361,2297
25362,2281
25363,2257
25364,2240
25365,2221
25366,2192
25367,2166
25368,2141
25369,2117
25370,2102
25371,2086
25372,2066
25373,2053
25374,2033
25375,2019
25376,2014
25377,2007
25378,2007
25379,2000
25380,1999
25381,2000
25382,2000
25383,1996
25384,1993
25385,1986
25386,1986
25387,1970
25388,1952
25389,1937
25390,1933
25391,1916
25392,1904
25393,1884
25394,1872
25395,1851
25396,1837
25397,1826
25398,1820
25399,1813
25400,1808
25401,1805
25402,1800
25403,1793
25404,1794
25405,1794
25406,1789
25407,1793
25408,1788
25409,1788
25410,1787
25411,1783
25412,1783
25413,1780
25414,1782
25415,1777
25416,1773
25417,1776
25418,1775
25419,1776
25420,1778
25421,1783
25422,1781
25423,1782
25424,1779
25425,1782
25426,1781
25427,1785
25428,1778
25429,1787
25430,1793
25431,1790
25432,1789
25433,1796
25434,1793
25435,1805
25436,1802
25437,1811
25438,1808
25439,1808
25440,1810
25441,1808
25442,1808
25443,1808
25444,1805
25445,1806
25446,1806
25447,1807
25448,1798
25449,1808
25450,1808
25451,1808
25452,1810
25453,1811
25454,1810
25455,1819
25456,1824
25457,1824
25458,1835
25459,1831
25460,1837
25461,1838
25462,1839
25463,1843
25464,1840
25465,1840
25466,1841
25467,1850
25468,1841
25469,1850
25470,1857
25471,1855
25472,1850
25473,1853
25474,1857
25475,1856
25476,1861
25477,1859
25478,1863
25479,1866
25480,1871
25481,1871
25482,1874
25483,1874
25484,1885
25485,1872
25486,1872
25487,1874
25488,1878
25489,1879
25490,1882
25491,1879
25492,1885
25493,1886
25494,1887
25495,1890
25496,1888
25497,1887
25498,1883
25499,1889
25500,1890
25501,1894
25502,1890
25503,1897
25504,1901
25505,1900
25506,1904
25507,1905
25508,1906
25509,1907
25510,1915
25511,1919
25512,1919
25513,1914
25514,1920
25515,1927
25516,1925
25517,1931
25518,1929
25519,1933
25520,1938
25521,1938
25522,1946
25523,1945
25524,1949
25525,1946
25526,1953
25527,1953
25528,1953
25529,1958
25530,1954
25531,1959
25532,1961
25533,1959
25534,1967
25535,1968
25536,1966
25537,1965
25538,1969
25539,1971
25540,1971
25541,1973
25542,1971
25543,1974
25544,1979
25545,1983
25546,1985
25547,1991
25548,1990
25549,1995
25550,2002
25551,2001
25552,2000
25553,2011
25554,2014
25555,2017
25556,2022
25567,2064
25568,2064
25569,2066
25570,2075
25571,2083
25572,2087
25573,2089
25574,2094
25575,2097
25576,2102
25577,2105
25578,2112
25579,2115
25580,2119
25581,2127
25582,2131
25583,2142
25584,2146
25585,2155
25586,2160
25587,2165
25588,2170
25589,2171
25590,2177
25591,2187
25592,2186
25593,2191
25594,2192
25595,2194
25596,2203
25597,2205
25598,2210
25599,2214
25600,2221
25601,2224
25602,2231
25603,2229
25604,2238
25605,2243
25606,2245
25607,2240
25608,2246
25609,2251
25610,2255
25611,2256
25612,2259
25613,2261
25614,2259
25615,2266
25616,2261
25617,2262
25618,2264
25619,2263
25620,2265
25621,2262
25622,2257
25623,2258
25624,2259
25625,2254
25626,2256
25627,2245
25628,2254
25629,2249
25630,2245
25631,2244
25632,2240
25633,2235
25634,2230
25635,2221
25636,2218
25637,2210
25638,2203
25639,2193
25640,2190
25641,2182
25642,2173
25643,2160
25644,2153
25645,2145
25646,2128
25647,2123
25648,2111
25649,2100
25650,2089
25651,2082
25652,2067
25653,2062
25654,2046
25655,2038
25656,2029
25657,2020
25658,2010
25659,1999
25660,1985
25661,1979
25662,1969
25663,1962
25664,1951
25665,1945
25666,1935
25667,1924
25668,1917
25669,1914
25670,1905
25671,1903
25672,1894
25673,1888
25674,1882
25675,1872
25676,1862
25677,1861
25678,1854
25679,1852
25680,1841
25681,1838
25682,1831
25683,1829
25684,1825
25685,1815
25686,1809
25687,1808
25688,1808
25689,1803
25690,1799
25691,1794
25692,1790
25693,1792
25694,1782
25695,1782
25696,1777
25697,1779
25698,1775
25699,1773
25700,1770
25701,1766
25702,1767
25703,1771
25704,1768
25705,1773
25706,1769
25707,1766
25708,1763
25709,1761
25710,1762
25711,1766
25712,1759
25713,1759
25714,1762
25715,1759
25716,1757
25717,1761
25718,1764
25719,1764
25720,1770
25721,1766
25722,1767
25723,1771
25724,1767
25725,1769
25726,1773
25727,1769
25728,1771
25729,1775
25730,1770
25731,1770
25732,1773
25733,1776
25734,1773
25735,1771
25736,1770
25737,1771
25738,1774
25739,1776
25740,1771
25741,1767
25742,1771
25743,1769
25744,1766
25745,1771
25746,1769
25747,1770
25748,1777
25749,1773
25750,1776
25751,1775
25752,1776
25753,1782
25754,1781
25755,1777
25756,1780
25757,1781
25758,1779
25759,1777
25760,1783
25761,1781
25762,1783
25763,1779
25764,1782
25765,1778
25766,1782
25767,1782
25768,1785
25769,1782
25770,1787
25771,1788
25772,1788
25773,1791
25774,1789
25775,1793
25776,1793
25777,1785
25778,1792
25779,1790
25780,1789
25781,1789
25782,1793
25783,1791
25784,1797
25785,1802
25786,1798
25787,1806
25788,1807
25789,1808
25790,1814
25791,1809
25792,1815
25793,1821
25794,1820
25795,1823
25796,1820
25797,1821
25798,1824
25799,1817
25800,1815
25801,1814
25802,1812
25803,1814
25804,1811
25805,1814
25806,1811
25817,1819
25818,1824
25819,1831
25820,1828
25821,1830
25822,1835
25823,1839
25824,1839
25825,1835
25826,1834
25827,1835
25828,1838
25829,1838
25830,1840
25831,1838
25832,1837
25833,1840
25834,1837
25835,1837
25836,1837
25837,1837
25838,1833
25839,1830
25840,1831
25841,1828
25842,1822
25843,1829
25844,1824
25845,1827
25846,1827
25847,1825
25848,1831
25849,1830
25850,1835
25851,1830
25852,1833
25853,1837
25854,1838
25855,1840
25856,1840
25857,1841
25858,1843
25859,1840
25860,1840
25861,1839
25862,1841
25863,1840
25864,1842
25865,1850
25866,1850
25867,1845
25868,1847
25869,1847
25870,1845
25871,1845
25872,1843
25873,1849
25874,1847
25875,1840
25876,1840
25877,1840
25878,1840
25879,1840
25880,1841
25881,1837
25882,1836
25883,1838
25884,1840
25885,1840
25886,1834
25887,1839
25888,1840
25889,1839
25890,1840
25891,1838
25892,1835
25893,1836
25894,1837
25895,1835
25896,1831
25897,1833
25898,1832
25899,1831
25900,1831
25901,1835
25902,1838
25903,1840
25904,1840
25905,1840
25906,1840
25907,1844
25908,1840
25909,1840
25910,1841
25911,1839
25912,1836
25913,1838
25914,1839
25915,1839
25916,1842
25917,1840
25918,1839
25919,1838
25920,1840
25921,1839
25922,1837
25923,1838
25924,1841
25925,1841
25926,1840
25927,1839
25928,1831
25929,1837
25930,1830
25931,1835
25932,1834
25933,1833
25934,1830
25935,1833
25936,1838
25937,1831
25938,1835
25939,1835
25940,1829
25941,1834
25942,1831
25943,1834
25944,1833
25945,1830
25946,1829
25947,1835
25948,1837
25949,1837
25950,1835
25951,1839
25952,1838
25953,1840
25954,1840
25955,1840
25956,1839
25957,1841
25958,1843
25959,1847
25960,1846
25961,1842
25962,1845
25963,1845
25964,1845
25965,1841
25966,1842
25967,1840
25968,1839
25969,1840
25970,1840
25971,1839
25972,1842
25973,1841
25974,1840
25975,1840
25976,1840
25977,1840
25978,1840
25979,1840
25980,1842
25981,1851
25982,1847
25983,1846
25984,1845
25985,1847
25986,1843
25987,1845
25988,1844
25989,1843
25990,1851
25991,1847
25992,1847
25993,1843
25994,1847
25995,1846
25996,1843
25997,1847
25998,1849
25999,1846
26000,1849
26001,1847
26002,1847
26003,1850
26004,1853
26005,1851
26006,1857
26007,1854
26008,1857
26009,1855
26010,1853
26011,1856
26012,1856
26013,1857
26014,1858
26015,1857
26016,1861
26017,1861
26018,1862
26019,1862
26020,1870
26021,1869
26022,1869
26023,1870
26024,1873
26025,1873
26026,1872
26027,1872
26028,1872
26029,1870
26030,1871
26031,1867
26032,1869
26033,1867
26034,1870
26035,1872
26036,1872
26037,1871
26038,1872
26039,1875
26040,1873
26041,1872
26042,1878
26043,1874
26044,1878
26045,1875
26046,1875
26047,1876
26048,1874
26049,1881
26050,1874
26051,1872
26052,1872
26053,1879
26054,1877
26055,1874
26056,1873
26067,1879
26068,1882
26069,1885
26070,1882
26071,1882
26072,1878
26073,1882
26074,1883
26075,1883
26076,1877
26077,1881
26078,1879
26079,1875
26080,1874
26081,1872
26082,1871
26083,1871
26084,1866
26085,1868
26086,1865
26087,1862
26088,1859
26089,1859
26090,1857
26091,1868
26092,1863
26093,1862
26094,1866
26095,1866
26096,1862
26097,1865
26098,1859
26099,1858
26100,1858
26101,1857
26102,1855
26103,1854
26104,1847
26105,1843
26106,1842
26107,1842
26108,1838
26109,1840
26110,1842
26111,1840
26112,1840
26113,1839
26114,1834
26115,1829
26116,1831
26117,1824
26118,1821
26119,1826
26120,1823
26121,1821
26122,1822
26123,1822
26124,1821
26125,1822
26126,1825
26127,1822
26128,1822
26129,1824
26130,1823
26131,1823
26132,1823
26133,1823
26134,1826
26135,1822
26136,1821
26137,1818
26138,1822
26139,1811
26140,1809
26141,1808
26142,1805
26143,1797
26144,1803
26145,1798
26146,1800
26147,1797
26148,1798
26149,1795
26150,1799
26151,1798
26152,1795
26153,1795
26154,1794
26155,1794
26156,1793
26157,1794
26158,1796
26159,1795
26160,1790
26161,1793
26162,1793
26163,1787
26164,1797
26165,1792
26166,1792
26167,1797
26168,1789
26169,1791
26170,1790
26171,1789
26172,1791
26173,1789
26174,1787
26175,1789
26176,1787
26177,1786
26178,1788
26179,1785
26180,1783
26181,1781
26182,1783
26183,1788
26184,1786
26185,1783
26186,1787
26187,1781
26188,1789
26189,1782
26190,1783
26191,1782
26192,1778
26193,1776
26194,1775
26195,1776
26196,1775
26197,1770
26198,1773
26199,1771
26200,1767
26201,1769
26202,1771
26203,1764
26204,1767
26205,1771
26206,1769
26207,1769
26208,1765
26209,1763
26210,1765
26211,1766
26212,1761
26213,1763
26214,1771
26215,1773
26216,1774
26217,1766
26218,1767
26219,1770
26220,1767
26221,1762
26222,1760
26223,1758
26224,1747
26225,1754
26226,1749
26227,1745
26228,1744
26229,1744
26230,1750
26231,1749
26232,1744
26233,1747
26234,1749
26235,1747
26236,1751
26237,1749
26238,1751
26239,1746
26240,1744
26241,1745
26242,1749
26243,1744
26244,1747
26245,1744
26246,1747
26247,1746
26248,1744
26249,1743
26250,1739
26251,1741
26252,1743
26253,1744
26254,1743
26255,1744
26256,1744
26257,1745
26258,1747
26259,1750
26260,1754
26261,1766
26262,1767
26263,1775
26264,1775
26265,1782
26266,1786
26267,1786
26268,1791
26269,1798
26270,1806
26271,1804
26272,1815
26273,1814
26274,1820
26275,1818
26276,1814
26277,1815
26278,1814
26279,1821
26280,1813
26281,1814
26282,1817
26283,1819
26284,1817
26285,1817
26286,1818
26287,1821
26288,1822
26289,1827
26290,1831
26291,1840
26292,1842
26293,1852
26294,1857
26295,1863
26296,1872
26297,1872
26298,1875
26299,1874
26300,1874
26301,1873
26302,1866
26303,1866
26304,1860
26305,1853
26306,1856
26317,1870
26318,1870
26319,1867
26320,1870
26321,1861
26322,1858
26323,1856
26324,1847
26325,1844
26326,1839
26327,1829
26328,1818
26329,1806
26330,1797
26331,1783
26332,1773
26333,1759
26334,1744
26335,1728
26336,1712
26337,1701
26338,1680
26339,1670
26340,1662
26341,1649
26342,1648
26343,1647
26344,1647
26345,1641
26346,1645
26347,1646
26348,1647
26349,1643
26350,1642
26351,1638
26352,1638
26353,1646
26354,1639
26355,1635
26356,1641
26357,1645
26358,1646
26359,1648
26360,1641
26361,1642
26362,1639
26363,1644
26364,1635
26365,1638
26366,1642
26367,1637
26368,1637
26369,1639
26370,1634
26371,1636
26372,1633
26373,1631
26374,1625
26375,1627
26376,1618
26377,1620
26378,1616
26379,1616
26380,1616
26381,1616
26382,1620
26383,1616
26384,1619
26385,1615
26386,1621
26387,1615
26388,1616
26389,1622
26390,1617
26391,1623
26392,1622
26393,1627
26394,1626
26395,1629
26396,1632
26397,1630
26398,1633
26399,1627
26400,1632
26401,1637
26402,1639
26403,1650
26404,1658
26405,1669
26406,1683
26407,1701
26408,1718
26409,1744
26410,1766
26411,1781
26412,1794
26413,1808
26414,1811
26415,1824
26416,1829
26417,1838
26418,1840
26419,1847
26420,1859
26421,1878
26422,1901
26423,1922
26424,1956
26425,1990
26426,2032
26427,2087
26428,2143
26429,2199
26430,2270
26431,2331
26432,2389
26433,2447
26434,2501
26435,2544
26436,2559
26437,2587
26438,2559
26439,2531
26440,2483
26441,2428
26442,2368
26443,2305
26444,2247
26445,2197
26446,2151
26447,2109
26448,2075
26449,2037
26450,2028
26451,2007
26452,2000
26453,1990
26454,1984
26455,1981
26456,1985
26457,1968
26458,1959
26459,1937
26460,1933
26461,1918
26462,1904
26463,1904
26464,1885
26465,1867
26466,1852
26467,1838
26468,1834
26469,1814
26470,1805
26471,1789
26472,1790
26473,1777
26474,1775
26475,1769
26476,1761
26477,1751
26478,1743
26479,1731
26480,1715
26481,1706
26482,1691
26483,1679
26484,1665
26485,1650
26486,1642
26487,1632
26488,1617
26489,1611
26490,1610
26491,1595
26492,1587
26493,1583
26494,1582
26495,1581
26496,1578
26497,1573
26498,1568
26499,1573
26500,1570
26501,1563
26502,1570
26503,1566
26504,1563
26505,1566
26506,1568
26507,1582
26508,1571
26509,1571
26510,1582
26511,1584
26512,1579
26513,1585
26514,1585
26515,1587
26516,1584
26517,1585
26518,1585
26519,1585
26520,1584
26521,1584
26522,1584
26523,1580
26524,1584
26525,1579
26526,1575
26527,1578
26528,1578
26529,1581
26530,1584
26531,1586
26532,1587
26533,1584
26534,1594
26535,1600
26536,1600
26537,1603
26538,1609
26539,1616
26540,1616
26541,1617
26542,1616
26543,1619
26544,1621
26545,1618
26546,1623
26547,1623
26548,1625
26549,1628
26550,1627
26551,1619
26552,1631
26553,1622
26554,1625
26555,1627
26556,1629
26567,1648
26568,1649
26569,1649
26570,1659
26571,1655
26572,1662
26573,1664
26574,1667
26575,1673
26576,1671
26577,1674
26578,1666
26579,1671
26580,1668
26581,1673
26582,1673
26583,1673
26584,1679
26585,1680
26586,1680
26587,1683
26588,1686
26589,1689
26590,1686
26591,1693
26592,1689
26593,1693
26594,1697
26595,1699
26596,1697
26597,1701
26598,1700
26599,1694
26600,1694
26601,1695
26602,1697
26603,1691
26604,1694
26605,1697
26606,1694
26607,1695
26608,1695
26609,1696
26610,1695
26611,1703
26612,1702
26613,1706
26614,1712
26615,1709
26616,1712
26617,1718
26618,1719
26619,1722
26620,1726
26621,1733
26622,1737
26623,1733
26624,1739
26625,1741
26626,1743
26627,1743
26628,1744
26629,1744
26630,1749
26631,1749
26632,1755
26633,1759
26634,1761
26635,1767
26636,1773
26637,1772
26638,1781
26639,1779
26640,1788
26641,1795
26642,1802
26643,1801
26644,1805
26645,1805
26646,1812
26647,1814
26648,1813
26649,1823
26650,1826
26651,1830
26652,1834
26653,1842
26654,1845
26655,1852
26656,1857
26657,1856
26658,1865
26659,1863
26660,1863
26661,1869
26662,1872
26663,1871
26664,1875
26665,1889
26666,1888
26667,1899
26668,1905
26669,1905
26670,1914
26671,1921
26672,1926
26673,1933
26674,1943
26675,1945
26676,1951
26677,1957
26678,1961
26679,1965
26680,1968
26681,1975
26682,1975
26683,1973
26684,1983
26685,1982
26686,1985
26687,1991
26688,1991
26689,1997
26690,2001
26691,2000
26692,2000
26693,2006
26694,2013
26695,2017
26696,2015
26697,2022
26698,2027
26699,2032
26700,2033
26701,2033
26702,2032
26703,2032
26704,2033
26705,2035
26706,2033
26707,2034
26708,2033
26709,2041
26710,2034
26711,2032
26712,2033
26713,2031
26714,2031
26715,2032
26716,2030
26717,2030
26718,2028
26719,2023
26720,2020
26721,2015
26722,2010
26723,2006
26724,1998
26725,2000
26726,1991
26727,1991
26728,1982
26729,1975
26730,1970
26731,1967
26732,1957
26733,1942
26734,1936
26735,1929
26736,1922
26737,1915
26738,1905
26739,1904
26740,1899
26741,1885
26742,1879
26743,1871
26744,1859
26745,1851
26746,1836
26747,1823
26748,1811
26749,1792
26750,1781
26751,1770
26752,1761
26753,1746
26754,1734
26755,1728
26756,1718
26757,1711
26758,1703
26759,1698
26760,1685
26761,1680
26762,1670
26763,1664
26764,1659
26765,1647
26766,1645
26767,1632
26768,1622
26769,1616
26770,1606
26771,1600
26772,1589
26773,1586
26774,1583
26775,1580
26776,1575
26777,1575
26778,1574
26779,1571
26780,1567
26781,1566
26782,1565
26783,1554
26784,1557
26785,1555
26786,1553
26787,1535
26788,1535
26789,1535
26790,1532
26791,1522
26792,1520
26793,1522
26794,1519
26795,1515
26796,1513
26797,1510
26798,1506
26799,1506
26800,1505
26801,1509
26802,1507
26803,1506
26804,1511
26805,1513
26806,1510
26817,1514
26818,1516
26819,1520
26820,1520
26821,1524
26822,1527
26823,1533
26824,1535
26825,1533
26826,1535
26827,1535
26828,1535
26829,1535
26830,1535
26831,1535
26832,1535
26833,1535
26834,1535
26835,1535
26836,1552
26837,1535
26838,1553
26839,1555
26840,1556
26841,1557
26842,1562
26843,1567
26844,1566
26845,1570
26846,1569
26847,1579
26848,1575
26849,1578
26850,1582
26851,1584
26852,1584
26853,1587
26854,1593
26855,1589
26856,1595
26857,1597
26858,1588
26859,1594
26860,1591
26861,1591
26862,1591
26863,1594
26864,1598
26865,1595
26866,1599
26867,1598
26868,1599
26869,1604
26870,1602
26871,1612
26872,1605
26873,1611
26874,1616
26875,1611
26876,1609
26877,1614
26878,1607
26879,1604
26880,1601
26881,1603
26882,1605
26883,1600
26884,1603
26885,1600
26886,1601
26887,1604
26888,1606
26889,1610
26890,1616
26891,1616
26892,1619
26893,1619
26894,1621
26895,1633
26896,1628
26897,1632
26898,1634
26899,1635
26900,1638
26901,1643
26902,1642
26903,1636
26904,1637
26905,1633
26906,1634
26907,1635
26908,1631
26909,1628
26910,1629
26911,1632
26912,1633
26913,1633
26914,1638
26915,1635
26916,1646
26917,1647
26918,1658
26919,1648
26920,1652
26921,1650
26922,1654
26923,1653
26924,1651
26925,1654
26926,1648
26927,1648
26928,1645
26929,1642
26930,1637
26931,1635
26932,1635
26933,1633
26934,1628
26935,1638
26936,1638
26937,1637
26938,1638
26939,1641
26940,1641
26941,1648
26942,1650
26943,1651
26944,1654
26945,1660
26946,1661
26947,1657
26948,1661
26949,1655
26950,1654
26951,1654
26952,1654
26953,1655
26954,1648
26955,1649
26956,1659
26957,1646
26958,1657
26959,1653
26960,1655
26961,1642
26962,1655
26963,1664
26964,1662
26965,1659
26966,1664
26967,1663
26968,1650
26969,1657
26970,1659
26971,1657
26972,1656
26973,1655
26974,1651
26975,1653
26976,1658
26977,1653
26978,1661
26979,1661
26980,1670
26981,1669
26982,1673
26983,1667
26984,1667
26985,1673
26986,1673
26987,1667
26988,1673
26989,1667
26990,1673
26991,1673
26992,1670
26993,1675
26994,1669
26995,1669
26996,1665
26997,1674
26998,1674
26999,1659
27000,1670
27001,1665
27002,1664
27003,1664
27004,1661
27005,1663
27006,1658
27007,1665
27008,1661
27009,1657
27010,1667
27011,1667
27012,1680
27013,1669
27014,1671
27015,1670
27016,1671
27017,1675
27018,1670
27019,1675
27020,1670
27021,1669
27022,1669
27023,1664
27024,1664
27025,1661
27026,1664
27027,1663
27028,1664
27029,1663
27030,1664
27031,1666
27032,1670
27033,1677
27034,1681
27035,1679
27036,1681
27037,1687
27038,1693
27039,1689
27040,1694
27041,1694
27042,1695
27043,1691
27044,1690
27045,1689
27046,1693
27047,1685
27048,1681
27049,1680
27050,1681
27051,1681
27052,1681
27053,1680
27054,1680
27055,1681
27056,1681
27067,1699
27068,1700
27069,1706
27070,1700
27071,1686
27072,1705
27073,1705
27074,1709
27075,1709
27076,1715
27077,1712
27078,1712
27079,1712
27080,1717
27081,1721
27082,1715
27083,1719
27084,1712
27085,1713
27086,1712
27087,1712
27088,1710
27089,1711
27090,1700
27091,1698
27092,1697
27093,1695
27094,1697
27095,1700
27096,1702
27097,1707
27098,1712
27099,1713
27100,1725
27101,1730
27102,1727
27103,1735
27104,1734
27105,1737
27106,1742
27107,1741
27108,1738
27109,1741
27110,1739
27111,1733
27112,1731
27113,1730
27114,1726
27115,1725
27116,1729
27117,1723
27118,1726
27119,1722
27120,1726
27121,1729
27122,1733
27123,1735
27124,1737
27125,1743
27126,1747
27127,1744
27128,1744
27129,1744
27130,1744
27131,1744
27132,1744
27133,1742
27134,1738
27135,1733
27136,1729
27137,1724
27138,1727
27139,1722
27140,1723
27141,1719
27142,1718
27143,1719
27144,1726
27145,1731
27146,1729
27147,1741
27148,1741
27149,1743
27150,1744
27151,1750
27152,1754
27153,1757
27154,1763
27155,1760
27156,1767
27157,1761
27158,1763
27159,1767
27160,1766
27161,1765
27162,1769
27163,1764
27164,1765
27165,1760
27166,1761
27167,1761
27168,1751
27169,1762
27170,1761
27171,1765
27172,1761
27173,1758
27174,1759
27175,1759
27176,1755
27177,1755
27178,1759
27179,1755
27180,1762
27181,1766
27182,1766
27183,1774
27184,1776
27185,1778
27186,1777
27187,1774
27188,1770
27189,1775
27190,1774
27191,1767
27192,1767
27193,1760
27194,1762
27195,1760
27196,1761
27197,1760
27198,1755
27199,1759
27200,1758
27201,1753
27202,1751
27203,1751
27204,1757
27205,1755
27206,1755
27207,1758
27208,1757
27209,1765
27210,1769
27211,1767
27212,1775
27213,1778
27214,1783
27215,1790
27216,1786
27217,1803
27218,1794
27219,1791
27220,1789
27221,1792
27222,1792
27223,1799
27224,1797
27225,1799
27226,1794
27227,1797
27228,1792
27229,1799
27230,1797
27231,1791
27232,1792
27233,1803
27234,1790
27235,1790
27236,1795
27237,1796
27238,1802
27239,1802
27240,1806
27241,1805
27242,1805
27243,1808
27244,1819
27245,1824
27246,1827
27247,1833
27248,1835
27249,1843
27250,1852
27251,1856
27252,1859
27253,1861
27254,1869
27255,1870
27256,1874
27257,1872
27258,1873
27259,1878
27260,1881
27261,1879
27262,1878
27263,1878
27264,1883
27265,1879
27266,1882
27267,1878
27268,1883
27269,1879
27270,1879
27271,1886
27272,1891
27273,1893
27274,1898
27275,1899
27276,1904
27277,1907
27278,1913
27279,1920
27280,1931
27281,1936
27282,1943
27283,1952
27284,1955
27285,1955
27286,1963
27287,1965
27288,1966
27289,1967
27290,1961
27291,1955
27292,1959
27293,1962
27294,1963
27295,1963
27296,1968
27297,1971
27298,1977
27299,1982
27300,1983
27301,1993
27302,1990
27303,1991
27304,1990
27305,1991
27306,1994
27307,1987
27318,1889
27319,1872
27320,1862
27321,1847
27322,1836
27323,1827
27324,1818
27325,1811
27326,1808
27327,1802
27328,1801
27329,1800
27330,1799
27331,1807
27332,1806
27333,1808
27334,1808
27335,1808
27336,1806
27337,1808
27338,1808
27339,1815
27340,1805
27341,1807
27342,1798
27343,1790
27344,1786
27345,1783
27346,1776
27347,1775
27348,1767
27349,1769
27350,1769
27351,1765
27352,1763
27353,1762
27354,1765
27355,1764
27356,1773
27357,1766
27358,1773
27359,1773
27360,1779
27361,1776
27362,1782
27363,1787
27364,1787
27365,1783
27366,1791
27367,1788
27368,1787
27369,1787
27370,1782
27371,1783
27372,1787
27373,1782
27374,1781
27375,1777
27376,1778
27377,1778
27378,1773
27379,1766
27380,1766
27381,1765
27382,1760
27383,1757
27384,1760
27385,1765
27386,1771
27387,1775
27388,1776
27389,1787
27390,1793
27391,1808
27392,1817
27393,1835
27394,1851
27395,1865
27396,1883
27397,1893
27398,1902
27399,1911
27400,1917
27401,1919
27402,1924
27403,1927
27404,1929
27405,1936
27406,1953
27407,1968
27408,1997
27409,2017
27410,2047
27411,2096
27412,2145
27413,2197
27414,2266
27415,2331
27416,2405
27417,2483
27418,2547
27419,2618
27420,2685
27421,2741
27422,2778
27423,2796
27424,2779
27425,2742
27426,2682
27427,2610
27428,2533
27429,2451
27430,2391
27431,2327
27432,2282
27433,2239
27434,2208
27435,2189
27436,2173
27437,2161
27438,2162
27439,2160
27440,2163
27441,2165
27442,2180
27443,2185
27444,2189
27445,2194
27446,2194
27447,2192
27448,2192
27449,2179
27450,2173
27451,2158
27452,2141
27453,2123
27454,2096
27455,2078
27456,2047
27457,2032
27458,2007
27459,1995
27460,1974
27461,1965
27462,1946
27463,1938
27464,1932
27465,1922
27466,1911
27467,1907
27468,1902
27469,1886
27470,1873
27471,1867
27472,1850
27473,1836
27474,1823
27475,1810
27476,1806
27477,1794
27478,1788
27479,1779
27480,1778
27481,1774
27482,1767
27483,1764
27484,1758
27485,1751
27486,1744
27487,1743
27488,1735
27489,1730
27490,1733
27491,1726
27492,1729
27493,1731
27494,1729
27495,1730
27496,1740
27497,1737
27498,1741
27499,1746
27500,1744
27501,1744
27502,1745
27503,1744
27504,1749
27505,1750
27506,1746
27507,1745
27508,1751
27509,1749
27510,1750
27511,1745
27512,1749
27513,1747
27514,1746
27515,1744
27516,1745
27517,1751
27518,1745
27519,1746
27520,1747
27521,1746
27522,1744
27523,1743
27524,1743
27525,1744
27526,1739
27527,1744
27528,1744
27529,1749
27530,1753
27531,1753
27532,1758
27533,1757
27534,1776
27535,1774
27536,1776
27537,1779
27538,1776
27539,1776
27540,1775
27541,1774
27542,1761
27543,1773
27544,1771
27545,1769
27546,1771
27547,1766
27548,1781
27549,1765
27550,1773
27551,1771
27552,1773
27553,1776
27554,1779
27555,1787
27556,1787
27557,1787
27568,1792
27569,1795
27570,1795
27571,1802
27572,1805
27573,1808
27574,1811
27575,1814
27576,1815
27577,1820
27578,1819
27579,1819
27580,1821
27581,1829
27582,1818
27583,1826
27584,1819
27585,1811
27586,1826
27587,1835
27588,1827
27589,1827
27590,1835
27591,1839
27592,1839
27593,1841
27594,1847
27595,1846
27596,1841
27597,1845
27598,1850
27599,1846
27600,1856
27601,1851
27602,1854
27603,1855
27604,1852
27605,1855
27606,1857
27607,1867
27608,1859
27609,1859
27610,1862
27611,1869
27612,1867
27613,1863
27614,1877
27615,1883
27616,1887
27617,1893
27618,1895
27619,1904
27620,1904
27621,1910
27622,1913
27623,1932
27624,1918
27625,1920
27626,1923
27627,1925
27628,1926
27629,1931
27630,1930
27631,1936
27632,1939
27633,1947
27634,1947
27635,1953
27636,1958
27637,1967
27638,1973
27639,1979
27640,1984
27641,1989
27642,1995
27643,1994
27644,1989
27645,2000
27646,1998
27647,2002
27648,2004
27649,2010
27650,2015
27651,2016
27652,2026
27653,2032
27654,2035
27655,2035
27656,2045
27657,2054
27658,2057
27659,2061
27660,2065
27661,2073
27662,2078
27663,2078
27664,2086
27665,2086
27666,2087
27667,2093
27668,2095
27669,2103
27670,2096
27671,2101
27672,2102
27673,2107
27674,2111
27675,2115
27676,2115
27677,2112
27678,2117
27679,2117
27680,2121
27681,2122
27682,2122
27683,2129
27684,2130
27685,2135
27686,2133
27687,2141
27688,2145
27689,2156
27690,2159
27691,2161
27692,2163
27693,2171
27694,2170
27695,2171
27696,2171
27697,2170
27698,2167
27699,2166
27700,2169
27701,2167
27702,2160
27703,2159
27704,2156
27705,2153
27706,2143
27707,2140
27708,2131
27709,2126
27710,2118
27711,2114
27712,2112
27713,2101
27714,2096
27715,2095
27716,2087
27717,2080
27718,2078
27719,2075
27720,2064
27721,2059
27722,2037
27723,2031
27724,2015
27725,2007
27726,1998
27727,1983
27728,1977
27729,1968
27730,1956
27731,1942
27732,1936
27733,1925
27734,1919
27735,1909
27736,1905
27737,1899
27738,1898
27739,1883
27740,1879
27741,1874
27742,1861
27743,1858
27744,1847
27745,1840
27746,1834
27747,1827
27748,1814
27749,1808
27750,1804
27751,1795
27752,1791
27753,1787
27754,1779
27755,1777
27756,1777
27757,1774
27758,1773
27759,1765
27760,1763
27761,1765
27762,1761
27763,1755
27764,1746
27765,1747
27766,1743
27767,1743
27768,1743
27769,1735
27770,1733
27771,1737
27772,1731
27773,1728
27774,1725
27775,1727
27776,1727
27777,1727
27778,1727
27779,1727
27780,1733
27781,1731
27782,1729
27783,1729
27784,1730
27785,1737
27786,1744
27787,1744
27788,1745
27789,1752
27790,1750
27791,1755
27792,1757
27793,1755
27794,1762
27795,1754
27796,1758
27797,1750
27798,1746
27799,1745
27800,1747
27801,1750
27802,1745
27803,1745
27804,1751
27805,1755
27806,1762
27807,1763
27818,1795
27819,1801
27820,1801
27821,1805
27822,1803
27823,1805
27824,1803
27825,1807
27826,1808
27827,1810
27828,1808
27829,1811
27830,1808
27831,1809
27832,1808
27833,1808
27834,1808
27835,1809
27836,1808
27837,1810
27838,1809
27839,1819
27840,1815
27841,1821
27842,1821
27843,1825
27844,1827
27845,1826
27846,1831
27847,1835
27848,1830
27849,1840
27850,1840
27851,1840
27852,1840
27853,1839
27854,1840
27855,1836
27856,1840
27857,1840
27858,1843
27859,1840
27860,1840
27861,1841
27862,1841
27863,1841
27864,1843
27865,1846
27866,1847
27867,1850
27868,1851
27869,1856
27870,1859
27871,1866
27872,1860
27873,1862
27874,1869
27875,1870
27876,1872
27877,1873
27878,1877
27879,1879
27880,1883
27881,1885
27882,1889
27883,1898
27884,1886
27885,1890
27886,1888
27887,1888
27888,1889
27889,1890
27890,1891
27891,1892
27892,1893
27893,1893
27894,1889
27895,1894
27896,1897
27897,1897
27898,1895
27899,1899
27900,1903
27901,1905
27902,1906
27903,1907
27904,1915
27905,1915
27906,1918
27907,1921
27908,1921
27909,1933
27910,1927
27911,1930
27912,1934
27913,1936
27914,1936
27915,1946
27916,1946
27917,1947
27918,1946
27919,1947
27920,1951
27921,1951
27922,1952
27923,1949
27924,1949
27925,1949
27926,1950
27927,1954
27928,1956
27929,1957
27930,1961
27931,1963
27932,1968
27933,1968
27934,1968
27935,1974
27936,1971
27937,1981
27938,1975
27939,1974
27940,1968
27941,1970
27942,1970
27943,1971
27944,1973
27945,1975
27946,1978
27947,1981
27948,1986
27949,1989
27950,1990
27951,1995
27952,1993
27953,1997
27954,1998
27955,2000
27956,1998
27957,1998
27958,2000
27959,2003
27960,2001
27961,2003
27962,2005
27963,2010
27964,2007
27965,2002
27966,2005
27967,2005
27968,2007
27969,2011
27970,2010
27971,2007
27972,2006
27973,2013
27974,2017
27975,2017
27976,2019
27977,2023
27978,2026
27979,2026
27980,2027
27981,2030
27982,2029
27983,2032
27984,2033
27985,2039
27986,2035
27987,2042
27988,2042
27989,2043
27990,2046
27991,2042
27992,2044
27993,2043
27994,2054
27995,2058
27996,2057
27997,2058
27998,2063
27999,2067
28000,2068
28001,2070
28002,2077
28003,2076
